nodenumber,x-coordinate,y-coordinate,pressure,x-velocity,y-velocity
1,0.0000000000e+00,0.0000000000e+00,0.0000000000e+00,0.0000000000e+00,7.1919888130e+01
2,1.0130973630e-03,-2.8698507720e-19,0.0000000000e+00,0.0000000000e+00,6.5388067840e+01
3,2.2220913800e-03,-6.2946276370e-19,0.0000000000e+00,0.0000000000e+00,5.5986716860e+01
4,3.9473965850e-03,-1.1181984620e-18,0.0000000000e+00,0.0000000000e+00,5.2185579190e+01
5,5.9419792880e-03,-1.6832137230e-18,0.0000000000e+00,0.0000000000e+00,5.2684315310e+01
6,7.9399260530e-03,-2.2491819380e-18,0.0000000000e+00,0.0000000000e+00,5.1528558890e+01
7,9.9378728170e-03,-2.8151501530e-18,0.0000000000e+00,0.0000000000e+00,4.9727075330e+01
8,1.1935819580e-02,-3.3811183680e-18,0.0000000000e+00,0.0000000000e+00,4.8340272840e+01
9,1.3933766350e-02,-3.9470865830e-18,0.0000000000e+00,0.0000000000e+00,4.7194602620e+01
10,1.5931713110e-02,-4.5130547990e-18,0.0000000000e+00,0.0000000000e+00,4.6304586860e+01
11,1.7929659880e-02,-5.0790230140e-18,0.0000000000e+00,0.0000000000e+00,4.5676960970e+01
12,1.9927606640e-02,-5.6449912290e-18,0.0000000000e+00,0.0000000000e+00,4.5254170010e+01
13,2.1925553400e-02,-6.2109594440e-18,0.0000000000e+00,0.0000000000e+00,4.4948745840e+01
14,2.3923500170e-02,-6.7769276590e-18,0.0000000000e+00,0.0000000000e+00,4.4827508480e+01
15,2.5921446930e-02,-7.3428958740e-18,0.0000000000e+00,0.0000000000e+00,4.5251980750e+01
16,2.7919393700e-02,-7.9088640890e-18,0.0000000000e+00,0.0000000000e+00,4.5917244810e+01
17,2.9917340460e-02,-8.4748323040e-18,0.0000000000e+00,0.0000000000e+00,4.6159826850e+01
18,3.1915287230e-02,-9.0408005190e-18,0.0000000000e+00,0.0000000000e+00,4.4793922920e+01
19,3.3913233990e-02,-9.6067687340e-18,0.0000000000e+00,0.0000000000e+00,4.2659126380e+01
20,3.5911180760e-02,-1.0172736950e-17,0.0000000000e+00,0.0000000000e+00,4.1053197350e+01
21,3.7909127520e-02,-1.0738705160e-17,0.0000000000e+00,0.0000000000e+00,4.0016249230e+01
22,3.9907074280e-02,-1.1304673380e-17,0.0000000000e+00,0.0000000000e+00,3.9897397750e+01
23,4.1905021050e-02,-1.1870641590e-17,0.0000000000e+00,0.0000000000e+00,4.0104716240e+01
24,4.3902967810e-02,-1.2436609810e-17,0.0000000000e+00,0.0000000000e+00,4.0230743550e+01
25,4.5900914580e-02,-1.3002578030e-17,0.0000000000e+00,0.0000000000e+00,4.0166192730e+01
26,4.7898861340e-02,-1.3568546240e-17,0.0000000000e+00,0.0000000000e+00,3.9883672510e+01
27,4.9896808110e-02,-1.4134514460e-17,0.0000000000e+00,0.0000000000e+00,3.9264261940e+01
28,5.1894754870e-02,-1.4700482670e-17,0.0000000000e+00,0.0000000000e+00,3.8661250620e+01
29,5.3892701640e-02,-1.5266450890e-17,0.0000000000e+00,0.0000000000e+00,3.8457078540e+01
30,5.5890648400e-02,-1.5832419100e-17,0.0000000000e+00,0.0000000000e+00,3.8392857470e+01
31,5.7888595160e-02,-1.6398387320e-17,0.0000000000e+00,0.0000000000e+00,3.8358535520e+01
32,5.9886541930e-02,-1.6964355530e-17,0.0000000000e+00,0.0000000000e+00,3.8422122900e+01
33,6.1884488690e-02,-1.7530323750e-17,0.0000000000e+00,0.0000000000e+00,3.8356495910e+01
34,6.3882435460e-02,-1.8096291960e-17,0.0000000000e+00,0.0000000000e+00,3.7932541480e+01
35,6.5880382220e-02,-1.8662260180e-17,0.0000000000e+00,0.0000000000e+00,3.7286470820e+01
36,6.7878328990e-02,-1.9228228390e-17,0.0000000000e+00,0.0000000000e+00,3.6694126170e+01
37,6.9876275750e-02,-1.9794196610e-17,0.0000000000e+00,0.0000000000e+00,3.6262776110e+01
38,7.1874222520e-02,-2.0360164820e-17,0.0000000000e+00,0.0000000000e+00,3.5965442990e+01
39,7.3872169280e-02,-2.0926133040e-17,0.0000000000e+00,0.0000000000e+00,3.5805346070e+01
40,7.5870116050e-02,-2.1492101250e-17,0.0000000000e+00,0.0000000000e+00,3.5811491700e+01
41,7.7868062810e-02,-2.2058069470e-17,0.0000000000e+00,0.0000000000e+00,3.5864840290e+01
42,7.9866009570e-02,-2.2624037680e-17,0.0000000000e+00,0.0000000000e+00,3.5800274870e+01
43,8.1863956340e-02,-2.3190005900e-17,0.0000000000e+00,0.0000000000e+00,3.5536798040e+01
44,8.3861903100e-02,-2.3755974110e-17,0.0000000000e+00,0.0000000000e+00,3.5083190810e+01
45,8.5859849870e-02,-2.4321942330e-17,0.0000000000e+00,0.0000000000e+00,3.4548611000e+01
46,8.7857796630e-02,-2.4887910540e-17,0.0000000000e+00,0.0000000000e+00,3.4105791330e+01
47,8.9855743400e-02,-2.5453878760e-17,0.0000000000e+00,0.0000000000e+00,3.3741422790e+01
48,9.1853690160e-02,-2.6019846970e-17,0.0000000000e+00,0.0000000000e+00,3.3476508950e+01
49,9.3851636930e-02,-2.6585815190e-17,0.0000000000e+00,0.0000000000e+00,3.3409191790e+01
50,9.5849583690e-02,-2.7151783400e-17,0.0000000000e+00,0.0000000000e+00,3.3385711050e+01
51,9.7847530450e-02,-2.7717751620e-17,0.0000000000e+00,0.0000000000e+00,3.3285513510e+01
52,9.9845477220e-02,-2.8283719830e-17,0.0000000000e+00,0.0000000000e+00,3.3083369070e+01
53,1.0184342400e-01,-2.8849688050e-17,0.0000000000e+00,0.0000000000e+00,3.2688978870e+01
54,1.0384137070e-01,-2.9415656260e-17,0.0000000000e+00,0.0000000000e+00,3.2128889070e+01
55,1.0583931750e-01,-2.9981624480e-17,0.0000000000e+00,0.0000000000e+00,3.1634327580e+01
56,1.0783726430e-01,-3.0547592690e-17,0.0000000000e+00,0.0000000000e+00,3.1287839390e+01
57,1.0983521100e-01,-3.1113560910e-17,0.0000000000e+00,0.0000000000e+00,3.1161718140e+01
58,1.1183315780e-01,-3.1679529120e-17,0.0000000000e+00,0.0000000000e+00,3.1319451540e+01
59,1.1383110460e-01,-3.2245497340e-17,0.0000000000e+00,0.0000000000e+00,3.1505254120e+01
60,1.1582905130e-01,-3.2811465550e-17,0.0000000000e+00,0.0000000000e+00,3.1427212990e+01
61,1.1782699810e-01,-3.3377433770e-17,0.0000000000e+00,0.0000000000e+00,3.0990572840e+01
62,1.1982494490e-01,-3.3943401980e-17,0.0000000000e+00,0.0000000000e+00,3.0300491470e+01
63,1.2182289160e-01,-3.4509370200e-17,0.0000000000e+00,0.0000000000e+00,2.9502986810e+01
64,1.2382083840e-01,-3.5075338410e-17,0.0000000000e+00,0.0000000000e+00,2.8854141920e+01
65,1.2581878520e-01,-3.5641306630e-17,0.0000000000e+00,0.0000000000e+00,2.8531111730e+01
66,1.2781673190e-01,-3.6207274840e-17,0.0000000000e+00,0.0000000000e+00,2.8409328740e+01
67,1.2981467870e-01,-3.6773243060e-17,0.0000000000e+00,0.0000000000e+00,2.8312002770e+01
68,1.3181262550e-01,-3.7339211270e-17,0.0000000000e+00,0.0000000000e+00,2.8120628220e+01
69,1.3381057220e-01,-3.7905179490e-17,0.0000000000e+00,0.0000000000e+00,2.7880015550e+01
70,1.3580851900e-01,-3.8471147700e-17,0.0000000000e+00,0.0000000000e+00,2.7577544820e+01
71,1.3780646570e-01,-3.9037115920e-17,0.0000000000e+00,0.0000000000e+00,2.7068201510e+01
72,1.3980441250e-01,-3.9603084130e-17,0.0000000000e+00,0.0000000000e+00,2.6243318420e+01
73,1.4180235930e-01,-4.0169052350e-17,0.0000000000e+00,0.0000000000e+00,2.5414990350e+01
74,1.4380030600e-01,-4.0735020570e-17,0.0000000000e+00,0.0000000000e+00,2.4928788560e+01
75,1.4579825280e-01,-4.1300988780e-17,0.0000000000e+00,0.0000000000e+00,2.4846121490e+01
76,1.4779619960e-01,-4.1866957000e-17,0.0000000000e+00,0.0000000000e+00,2.5043760650e+01
77,1.4979414630e-01,-4.2432925210e-17,0.0000000000e+00,0.0000000000e+00,2.5073274010e+01
78,1.5179209310e-01,-4.2998893430e-17,0.0000000000e+00,0.0000000000e+00,2.4699409940e+01
79,1.5379003990e-01,-4.3564861640e-17,0.0000000000e+00,0.0000000000e+00,2.4020239490e+01
80,1.5578798660e-01,-4.4130829860e-17,0.0000000000e+00,0.0000000000e+00,2.3148108250e+01
81,1.5778593340e-01,-4.4696798070e-17,0.0000000000e+00,0.0000000000e+00,2.2177822970e+01
82,1.5978388020e-01,-4.5262766290e-17,0.0000000000e+00,0.0000000000e+00,2.1216244880e+01
83,1.6178182690e-01,-4.5828734500e-17,0.0000000000e+00,0.0000000000e+00,2.0311021990e+01
84,1.6377977370e-01,-4.6394702720e-17,0.0000000000e+00,0.0000000000e+00,1.9833594940e+01
85,1.6577772040e-01,-4.6960670930e-17,0.0000000000e+00,0.0000000000e+00,1.9857620420e+01
86,1.6777566720e-01,-4.7526639150e-17,0.0000000000e+00,0.0000000000e+00,1.9902979380e+01
87,1.6977361400e-01,-4.8092607360e-17,0.0000000000e+00,0.0000000000e+00,1.9803624800e+01
88,1.7177156070e-01,-4.8658575580e-17,0.0000000000e+00,0.0000000000e+00,1.9546881570e+01
89,1.7376950750e-01,-4.9224543790e-17,0.0000000000e+00,0.0000000000e+00,1.9001551950e+01
90,1.7576745430e-01,-4.9790512010e-17,0.0000000000e+00,0.0000000000e+00,1.8174877420e+01
91,1.7776540100e-01,-5.0356480220e-17,0.0000000000e+00,0.0000000000e+00,1.7129438390e+01
92,1.7976334780e-01,-5.0922448440e-17,0.0000000000e+00,0.0000000000e+00,1.6126289880e+01
93,1.8176129460e-01,-5.1488416650e-17,0.0000000000e+00,0.0000000000e+00,1.5492896040e+01
94,1.8375924130e-01,-5.2054384870e-17,0.0000000000e+00,0.0000000000e+00,1.5146832980e+01
95,1.8575718810e-01,-5.2620353080e-17,0.0000000000e+00,0.0000000000e+00,1.4859413470e+01
96,1.8775513490e-01,-5.3186321300e-17,0.0000000000e+00,0.0000000000e+00,1.4401030250e+01
97,1.8975308160e-01,-5.3752289510e-17,0.0000000000e+00,0.0000000000e+00,1.3758387500e+01
98,1.9175102840e-01,-5.4318257730e-17,0.0000000000e+00,0.0000000000e+00,1.3178003580e+01
99,1.9374897510e-01,-5.4884225940e-17,0.0000000000e+00,0.0000000000e+00,1.2809651480e+01
100,1.9574692190e-01,-5.5450194160e-17,0.0000000000e+00,0.0000000000e+00,1.2335853790e+01
101,1.9774486870e-01,-5.6016162370e-17,0.0000000000e+00,0.0000000000e+00,1.1333049220e+01
102,1.9974281540e-01,-5.6582130590e-17,0.0000000000e+00,0.0000000000e+00,1.0236557440e+01
103,2.0174076220e-01,-5.7148098800e-17,0.0000000000e+00,0.0000000000e+00,9.4549534840e+00
104,2.0373870900e-01,-5.7714067020e-17,0.0000000000e+00,0.0000000000e+00,9.0048463000e+00
105,2.0573665570e-01,-5.8280035230e-17,0.0000000000e+00,0.0000000000e+00,8.7723715260e+00
106,2.0773460250e-01,-5.8846003450e-17,0.0000000000e+00,0.0000000000e+00,8.5094032390e+00
107,2.0973254930e-01,-5.9411971660e-17,0.0000000000e+00,0.0000000000e+00,8.1136165140e+00
108,2.1173049600e-01,-5.9977939880e-17,0.0000000000e+00,0.0000000000e+00,7.4182408500e+00
109,2.1372844280e-01,-6.0543908090e-17,0.0000000000e+00,0.0000000000e+00,6.3691748160e+00
110,2.1572638960e-01,-6.1109876310e-17,0.0000000000e+00,0.0000000000e+00,4.9322390360e+00
111,2.1772433630e-01,-6.1675844520e-17,0.0000000000e+00,0.0000000000e+00,3.4848181410e+00
112,2.1972228310e-01,-6.2241812740e-17,0.0000000000e+00,0.0000000000e+00,2.4067245500e+00
113,2.2172022990e-01,-6.2807780950e-17,0.0000000000e+00,0.0000000000e+00,1.8471297850e+00
114,2.2371817660e-01,-6.3373749170e-17,0.0000000000e+00,0.0000000000e+00,1.8731515650e+00
115,2.2571612340e-01,-6.3939717380e-17,0.0000000000e+00,0.0000000000e+00,2.0745968100e+00
116,2.2771407010e-01,-6.4505685600e-17,0.0000000000e+00,0.0000000000e+00,1.9870310220e+00
117,2.2971201690e-01,-6.5071653810e-17,0.0000000000e+00,0.0000000000e+00,1.3829222350e+00
118,2.3170996370e-01,-6.5637622030e-17,0.0000000000e+00,0.0000000000e+00,2.3000466520e-01
119,2.3370791040e-01,-6.6203590240e-17,0.0000000000e+00,0.0000000000e+00,-1.2387680450e+00
120,2.3570585720e-01,-6.6769558460e-17,0.0000000000e+00,0.0000000000e+00,-2.5291463770e+00
121,2.3770380400e-01,-6.7335526670e-17,0.0000000000e+00,0.0000000000e+00,-3.4801814280e+00
122,2.3970175070e-01,-6.7901494890e-17,0.0000000000e+00,0.0000000000e+00,-3.9457188130e+00
123,2.4169969750e-01,-6.8467463100e-17,0.0000000000e+00,0.0000000000e+00,-4.0312982870e+00
124,2.4369764430e-01,-6.9033431320e-17,0.0000000000e+00,0.0000000000e+00,-4.2917869160e+00
125,2.4569559100e-01,-6.9599399540e-17,0.0000000000e+00,0.0000000000e+00,-4.7938019960e+00
126,2.4769353780e-01,-7.0165367750e-17,0.0000000000e+00,0.0000000000e+00,-5.4502885670e+00
127,2.4969148460e-01,-7.0731335970e-17,0.0000000000e+00,0.0000000000e+00,-6.2494124620e+00
128,2.5168943130e-01,-7.1297304180e-17,0.0000000000e+00,0.0000000000e+00,-7.1485502460e+00
129,2.5368737810e-01,-7.1863272400e-17,0.0000000000e+00,0.0000000000e+00,-8.3091105210e+00
130,2.5568532480e-01,-7.2429240610e-17,0.0000000000e+00,0.0000000000e+00,-9.5058935340e+00
131,2.5768327160e-01,-7.2995208830e-17,0.0000000000e+00,0.0000000000e+00,-1.0468041560e+01
132,2.5968121840e-01,-7.3561177040e-17,0.0000000000e+00,0.0000000000e+00,-1.1040998820e+01
133,2.6167916510e-01,-7.4127145260e-17,0.0000000000e+00,0.0000000000e+00,-1.1109844390e+01
134,2.6367711190e-01,-7.4693113470e-17,0.0000000000e+00,0.0000000000e+00,-1.1047809650e+01
135,2.6567505870e-01,-7.5259081690e-17,0.0000000000e+00,0.0000000000e+00,-1.1140715320e+01
136,2.6767300540e-01,-7.5825049900e-17,0.0000000000e+00,0.0000000000e+00,-1.1467958170e+01
137,2.6967095220e-01,-7.6391018120e-17,0.0000000000e+00,0.0000000000e+00,-1.2088924460e+01
138,2.7166889900e-01,-7.6956986330e-17,0.0000000000e+00,0.0000000000e+00,-1.3244414540e+01
139,2.7366684570e-01,-7.7522954550e-17,0.0000000000e+00,0.0000000000e+00,-1.4859304040e+01
140,2.7566479250e-01,-7.8088922760e-17,0.0000000000e+00,0.0000000000e+00,-1.6283894930e+01
141,2.7766273930e-01,-7.8654890980e-17,0.0000000000e+00,0.0000000000e+00,-1.7156265890e+01
142,2.7966068600e-01,-7.9220859190e-17,0.0000000000e+00,0.0000000000e+00,-1.7494758850e+01
143,2.8165863280e-01,-7.9786827410e-17,0.0000000000e+00,0.0000000000e+00,-1.7589990340e+01
144,2.8365657960e-01,-8.0352795620e-17,0.0000000000e+00,0.0000000000e+00,-1.7889664510e+01
145,2.8565452630e-01,-8.0918763840e-17,0.0000000000e+00,0.0000000000e+00,-1.8565600790e+01
146,2.8765247310e-01,-8.1484732050e-17,0.0000000000e+00,0.0000000000e+00,-1.9433399270e+01
147,2.8965041980e-01,-8.2050700270e-17,0.0000000000e+00,0.0000000000e+00,-1.9982605550e+01
148,2.9164836660e-01,-8.2616668480e-17,0.0000000000e+00,0.0000000000e+00,-2.0318787600e+01
149,2.9364631340e-01,-8.3182636700e-17,0.0000000000e+00,0.0000000000e+00,-2.1000896790e+01
150,2.9564426010e-01,-8.3748604910e-17,0.0000000000e+00,0.0000000000e+00,-2.2604059450e+01
151,2.9764220690e-01,-8.4314573130e-17,0.0000000000e+00,0.0000000000e+00,-2.4444023870e+01
152,2.9964015370e-01,-8.4880541340e-17,0.0000000000e+00,0.0000000000e+00,-2.4865469130e+01
153,3.0163810040e-01,-8.5446509560e-17,0.0000000000e+00,0.0000000000e+00,-2.4320828060e+01
154,3.0363604720e-01,-8.6012477770e-17,0.0000000000e+00,0.0000000000e+00,-2.4144486710e+01
155,3.0563399400e-01,-8.6578445990e-17,0.0000000000e+00,0.0000000000e+00,-2.4319897180e+01
156,3.0763194070e-01,-8.7144414200e-17,0.0000000000e+00,0.0000000000e+00,-2.4549144130e+01
157,3.0962988750e-01,-8.7710382420e-17,0.0000000000e+00,0.0000000000e+00,-2.5073032950e+01
158,3.1162783430e-01,-8.8276350630e-17,0.0000000000e+00,0.0000000000e+00,-2.6116391470e+01
159,3.1362578100e-01,-8.8842318850e-17,0.0000000000e+00,0.0000000000e+00,-2.7575539250e+01
160,3.1562372780e-01,-8.9408287060e-17,0.0000000000e+00,0.0000000000e+00,-2.8833756260e+01
161,3.1762167450e-01,-8.9974255280e-17,0.0000000000e+00,0.0000000000e+00,-2.9613816440e+01
162,3.1961962130e-01,-9.0540223490e-17,0.0000000000e+00,0.0000000000e+00,-2.9885164000e+01
163,3.2161756810e-01,-9.1106191710e-17,0.0000000000e+00,0.0000000000e+00,-2.9630899410e+01
164,3.2361551480e-01,-9.1672159920e-17,0.0000000000e+00,0.0000000000e+00,-2.9319736140e+01
165,3.2561346160e-01,-9.2238128140e-17,0.0000000000e+00,0.0000000000e+00,-2.9249825000e+01
166,3.2761140840e-01,-9.2804096350e-17,0.0000000000e+00,0.0000000000e+00,-2.9568794790e+01
167,3.2960935510e-01,-9.3370064570e-17,0.0000000000e+00,0.0000000000e+00,-3.0362690830e+01
168,3.3160730190e-01,-9.3936032780e-17,0.0000000000e+00,0.0000000000e+00,-3.1593257950e+01
169,3.3360524870e-01,-9.4502001000e-17,0.0000000000e+00,0.0000000000e+00,-3.2728994230e+01
170,3.3560319540e-01,-9.5067969210e-17,0.0000000000e+00,0.0000000000e+00,-3.3385972760e+01
171,3.3760114220e-01,-9.5633937430e-17,0.0000000000e+00,0.0000000000e+00,-3.3547276140e+01
172,3.3959908900e-01,-9.6199905640e-17,0.0000000000e+00,0.0000000000e+00,-3.3365166260e+01
173,3.4159703570e-01,-9.6765873860e-17,0.0000000000e+00,0.0000000000e+00,-3.3190887680e+01
174,3.4359498250e-01,-9.7331842080e-17,0.0000000000e+00,0.0000000000e+00,-3.3089378120e+01
175,3.4559292930e-01,-9.7897810290e-17,0.0000000000e+00,0.0000000000e+00,-3.3166003450e+01
176,3.4759087600e-01,-9.8463778510e-17,0.0000000000e+00,0.0000000000e+00,-3.3451306300e+01
177,3.4958882280e-01,-9.9029746720e-17,0.0000000000e+00,0.0000000000e+00,-3.3904162140e+01
178,3.5158676950e-01,-9.9595714940e-17,0.0000000000e+00,0.0000000000e+00,-3.4679161240e+01
179,3.5358471630e-01,-1.0016168320e-16,0.0000000000e+00,0.0000000000e+00,-3.5398025700e+01
180,3.5558266310e-01,-1.0072765140e-16,0.0000000000e+00,0.0000000000e+00,-3.5798042090e+01
181,3.5758060980e-01,-1.0129361960e-16,0.0000000000e+00,0.0000000000e+00,-3.5930873900e+01
182,3.5957855660e-01,-1.0185958780e-16,0.0000000000e+00,0.0000000000e+00,-3.5804664350e+01
183,3.6157650340e-01,-1.0242555600e-16,0.0000000000e+00,0.0000000000e+00,-3.5720196440e+01
184,3.6357445010e-01,-1.0299152420e-16,0.0000000000e+00,0.0000000000e+00,-3.5892811390e+01
185,3.6557239690e-01,-1.0355749240e-16,0.0000000000e+00,0.0000000000e+00,-3.6375667880e+01
186,3.6757034370e-01,-1.0412346070e-16,0.0000000000e+00,0.0000000000e+00,-3.7070436060e+01
187,3.6956829040e-01,-1.0468942890e-16,0.0000000000e+00,0.0000000000e+00,-3.7704652520e+01
188,3.7156623720e-01,-1.0525539710e-16,0.0000000000e+00,0.0000000000e+00,-3.8009870620e+01
189,3.7356418400e-01,-1.0582136530e-16,0.0000000000e+00,0.0000000000e+00,-3.7965275860e+01
190,3.7556213070e-01,-1.0638733350e-16,0.0000000000e+00,0.0000000000e+00,-3.7673337290e+01
191,3.7756007750e-01,-1.0695330170e-16,0.0000000000e+00,0.0000000000e+00,-3.7257143290e+01
192,3.7955802420e-01,-1.0751926990e-16,0.0000000000e+00,0.0000000000e+00,-3.6752078940e+01
193,3.8155597100e-01,-1.0808523820e-16,0.0000000000e+00,0.0000000000e+00,-3.6248169880e+01
194,3.8355391780e-01,-1.0865120640e-16,0.0000000000e+00,0.0000000000e+00,-3.6021107470e+01
195,3.8555186450e-01,-1.0921717460e-16,0.0000000000e+00,0.0000000000e+00,-3.6377340750e+01
196,3.8754981130e-01,-1.0978314280e-16,0.0000000000e+00,0.0000000000e+00,-3.7374005950e+01
197,3.8954775810e-01,-1.1034911100e-16,0.0000000000e+00,0.0000000000e+00,-3.8221557530e+01
198,3.9154570480e-01,-1.1091507920e-16,0.0000000000e+00,0.0000000000e+00,-3.8320762330e+01
199,3.9354365160e-01,-1.1148104750e-16,0.0000000000e+00,0.0000000000e+00,-3.7898274870e+01
200,3.9554159840e-01,-1.1204701570e-16,0.0000000000e+00,0.0000000000e+00,-3.7257862830e+01
201,3.9753954510e-01,-1.1261298390e-16,0.0000000000e+00,0.0000000000e+00,-3.6674360510e+01
202,3.9953749190e-01,-1.1317895210e-16,0.0000000000e+00,0.0000000000e+00,-3.6361980940e+01
203,4.0153543870e-01,-1.1374492030e-16,0.0000000000e+00,0.0000000000e+00,-3.6553691960e+01
204,4.0353338540e-01,-1.1431088850e-16,0.0000000000e+00,0.0000000000e+00,-3.7221767680e+01
205,4.0553133220e-01,-1.1487685670e-16,0.0000000000e+00,0.0000000000e+00,-3.7801617450e+01
206,4.0752927890e-01,-1.1544282500e-16,0.0000000000e+00,0.0000000000e+00,-3.8016620080e+01
207,4.0952722570e-01,-1.1600879320e-16,0.0000000000e+00,0.0000000000e+00,-3.7777036080e+01
208,4.1152517250e-01,-1.1657476140e-16,0.0000000000e+00,0.0000000000e+00,-3.7151705500e+01
209,4.1352311920e-01,-1.1714072960e-16,0.0000000000e+00,0.0000000000e+00,-3.6637665960e+01
210,4.1552106600e-01,-1.1770669780e-16,0.0000000000e+00,0.0000000000e+00,-3.6434134350e+01
211,4.1751901280e-01,-1.1827266600e-16,0.0000000000e+00,0.0000000000e+00,-3.6313915670e+01
212,4.1951695950e-01,-1.1883863420e-16,0.0000000000e+00,0.0000000000e+00,-3.5879775470e+01
213,4.2151490630e-01,-1.1940460250e-16,0.0000000000e+00,0.0000000000e+00,-3.5454968980e+01
214,4.2351285310e-01,-1.1997057070e-16,0.0000000000e+00,0.0000000000e+00,-3.5517739540e+01
215,4.2551079980e-01,-1.2053653890e-16,0.0000000000e+00,0.0000000000e+00,-3.6199891990e+01
216,4.2750874660e-01,-1.2110250710e-16,0.0000000000e+00,0.0000000000e+00,-3.6991984350e+01
217,4.2950669340e-01,-1.2166847530e-16,0.0000000000e+00,0.0000000000e+00,-3.6950841470e+01
218,4.3150464010e-01,-1.2223444350e-16,0.0000000000e+00,0.0000000000e+00,-3.6211713370e+01
219,4.3350258690e-01,-1.2280041180e-16,0.0000000000e+00,0.0000000000e+00,-3.5301160880e+01
220,4.3550053370e-01,-1.2336638000e-16,0.0000000000e+00,0.0000000000e+00,-3.4362974340e+01
221,4.3749848040e-01,-1.2393234820e-16,0.0000000000e+00,0.0000000000e+00,-3.3625078660e+01
