nodenumber,x-coordinate,y-coordinate,pressure,x-velocity,y-velocity
1,0.0000000000e+00,0.0000000000e+00,0.0000000000e+00,0.0000000000e+00,7.2306668740e+01
2,1.0130973630e-03,-2.8698507720e-19,0.0000000000e+00,0.0000000000e+00,6.5774934180e+01
3,2.2220913800e-03,-6.2946276370e-19,0.0000000000e+00,0.0000000000e+00,5.6373848260e+01
4,3.9473965850e-03,-1.1181984620e-18,0.0000000000e+00,0.0000000000e+00,5.2573322190e+01
5,5.9419792880e-03,-1.6832137230e-18,0.0000000000e+00,0.0000000000e+00,5.3073341150e+01
6,7.9399260530e-03,-2.2491819380e-18,0.0000000000e+00,0.0000000000e+00,5.1919211130e+01
7,9.9378728170e-03,-2.8151501530e-18,0.0000000000e+00,0.0000000000e+00,5.0119479120e+01
8,1.1935819580e-02,-3.3811183680e-18,0.0000000000e+00,0.0000000000e+00,4.8735238090e+01
9,1.3933766350e-02,-3.9470865830e-18,0.0000000000e+00,0.0000000000e+00,4.7592936970e+01
10,1.5931713110e-02,-4.5130547990e-18,0.0000000000e+00,0.0000000000e+00,4.6706372280e+01
11,1.7929659880e-02,-5.0790230140e-18,0.0000000000e+00,0.0000000000e+00,4.6082410000e+01
12,1.9927606640e-02,-5.6449912290e-18,0.0000000000e+00,0.0000000000e+00,4.5663536280e+01
13,2.1925553400e-02,-6.2109594440e-18,0.0000000000e+00,0.0000000000e+00,4.5362366200e+01
14,2.3923500170e-02,-6.7769276590e-18,0.0000000000e+00,0.0000000000e+00,4.5246853820e+01
15,2.5921446930e-02,-7.3428958740e-18,0.0000000000e+00,0.0000000000e+00,4.5677762950e+01
16,2.7919393700e-02,-7.9088640890e-18,0.0000000000e+00,0.0000000000e+00,4.6349438620e+01
17,2.9917340460e-02,-8.4748323040e-18,0.0000000000e+00,0.0000000000e+00,4.6597550780e+01
18,3.1915287230e-02,-9.0408005190e-18,0.0000000000e+00,0.0000000000e+00,4.5238488140e+01
19,3.3913233990e-02,-9.6067687340e-18,0.0000000000e+00,0.0000000000e+00,4.3112627560e+01
20,3.5911180760e-02,-1.0172736950e-17,0.0000000000e+00,0.0000000000e+00,4.1514694900e+01
21,3.7909127520e-02,-1.0738705160e-17,0.0000000000e+00,0.0000000000e+00,4.0484740480e+01
22,3.9907074280e-02,-1.1304673380e-17,0.0000000000e+00,0.0000000000e+00,4.0374008130e+01
23,4.1905021050e-02,-1.1870641590e-17,0.0000000000e+00,0.0000000000e+00,4.0591453430e+01
24,4.3902967810e-02,-1.2436609810e-17,0.0000000000e+00,0.0000000000e+00,4.0725470150e+01
25,4.5900914580e-02,-1.3002578030e-17,0.0000000000e+00,0.0000000000e+00,4.0669639820e+01
26,4.7898861340e-02,-1.3568546240e-17,0.0000000000e+00,0.0000000000e+00,4.0398137720e+01
27,4.9896808110e-02,-1.4134514460e-17,0.0000000000e+00,0.0000000000e+00,3.9788624100e+01
28,5.1894754870e-02,-1.4700482670e-17,0.0000000000e+00,0.0000000000e+00,3.9197120560e+01
29,5.3892701640e-02,-1.5266450890e-17,0.0000000000e+00,0.0000000000e+00,3.9004042910e+01
30,5.5890648400e-02,-1.5832419100e-17,0.0000000000e+00,0.0000000000e+00,3.8950514050e+01
31,5.7888595160e-02,-1.6398387320e-17,0.0000000000e+00,0.0000000000e+00,3.8929724280e+01
32,5.9886541930e-02,-1.6964355530e-17,0.0000000000e+00,0.0000000000e+00,3.9007054790e+01
33,6.1884488690e-02,-1.7530323750e-17,0.0000000000e+00,0.0000000000e+00,3.8953749100e+01
34,6.3882435460e-02,-1.8096291960e-17,0.0000000000e+00,0.0000000000e+00,3.8542149450e+01
35,6.5880382220e-02,-1.8662260180e-17,0.0000000000e+00,0.0000000000e+00,3.7909772180e+01
36,6.7878328990e-02,-1.9228228390e-17,0.0000000000e+00,0.0000000000e+00,3.7332446040e+01
37,6.9876275750e-02,-1.9794196610e-17,0.0000000000e+00,0.0000000000e+00,3.6916818210e+01
38,7.1874222520e-02,-2.0360164820e-17,0.0000000000e+00,0.0000000000e+00,3.6635078250e+01
39,7.3872169280e-02,-2.0926133040e-17,0.0000000000e+00,0.0000000000e+00,3.6489104010e+01
40,7.5870116050e-02,-2.1492101250e-17,0.0000000000e+00,0.0000000000e+00,3.6510131560e+01
41,7.7868062810e-02,-2.2058069470e-17,0.0000000000e+00,0.0000000000e+00,3.6581970530e+01
42,7.9866009570e-02,-2.2624037680e-17,0.0000000000e+00,0.0000000000e+00,3.6536155980e+01
43,8.1863956340e-02,-2.3190005900e-17,0.0000000000e+00,0.0000000000e+00,3.6290324390e+01
44,8.3861903100e-02,-2.3755974110e-17,0.0000000000e+00,0.0000000000e+00,3.5853935010e+01
45,8.5859849870e-02,-2.4321942330e-17,0.0000000000e+00,0.0000000000e+00,3.5338928420e+01
46,8.7857796630e-02,-2.4887910540e-17,0.0000000000e+00,0.0000000000e+00,3.4918148710e+01
47,8.9855743400e-02,-2.5453878760e-17,0.0000000000e+00,0.0000000000e+00,3.4574155840e+01
48,9.1853690160e-02,-2.6019846970e-17,0.0000000000e+00,0.0000000000e+00,3.4327346390e+01
49,9.3851636930e-02,-2.6585815190e-17,0.0000000000e+00,0.0000000000e+00,3.4277695900e+01
50,9.5849583690e-02,-2.7151783400e-17,0.0000000000e+00,0.0000000000e+00,3.4274323300e+01
51,9.7847530450e-02,-2.7717751620e-17,0.0000000000e+00,0.0000000000e+00,3.4197465810e+01
52,9.9845477220e-02,-2.8283719830e-17,0.0000000000e+00,0.0000000000e+00,3.4018977730e+01
53,1.0184342400e-01,-2.8849688050e-17,0.0000000000e+00,0.0000000000e+00,3.3645106080e+01
54,1.0384137070e-01,-2.9415656260e-17,0.0000000000e+00,0.0000000000e+00,3.3110410140e+01
55,1.0583931750e-01,-2.9981624480e-17,0.0000000000e+00,0.0000000000e+00,3.2642375180e+01
56,1.0783726430e-01,-3.0547592690e-17,0.0000000000e+00,0.0000000000e+00,3.2317879500e+01
57,1.0983521100e-01,-3.1113560910e-17,0.0000000000e+00,0.0000000000e+00,3.2216616660e+01
58,1.1183315780e-01,-3.1679529120e-17,0.0000000000e+00,0.0000000000e+00,3.2400249750e+01
59,1.1383110460e-01,-3.2245497340e-17,0.0000000000e+00,0.0000000000e+00,3.2609686150e+01
60,1.1582905130e-01,-3.2811465550e-17,0.0000000000e+00,0.0000000000e+00,3.2556201790e+01
61,1.1782699810e-01,-3.3377433770e-17,0.0000000000e+00,0.0000000000e+00,3.2146034920e+01
62,1.1982494490e-01,-3.3943401980e-17,0.0000000000e+00,0.0000000000e+00,3.1482719830e+01
63,1.2182289160e-01,-3.4509370200e-17,0.0000000000e+00,0.0000000000e+00,3.0712264890e+01
64,1.2382083840e-01,-3.5075338410e-17,0.0000000000e+00,0.0000000000e+00,3.0092243780e+01
65,1.2581878520e-01,-3.5641306630e-17,0.0000000000e+00,0.0000000000e+00,2.9798248270e+01
66,1.2781673190e-01,-3.6207274840e-17,0.0000000000e+00,0.0000000000e+00,2.9704630960e+01
67,1.2981467870e-01,-3.6773243060e-17,0.0000000000e+00,0.0000000000e+00,2.9638246630e+01
68,1.3181262550e-01,-3.7339211270e-17,0.0000000000e+00,0.0000000000e+00,2.9475821210e+01
69,1.3381057220e-01,-3.7905179490e-17,0.0000000000e+00,0.0000000000e+00,2.9263282470e+01
70,1.3580851900e-01,-3.8471147700e-17,0.0000000000e+00,0.0000000000e+00,2.8991784970e+01
71,1.3780646570e-01,-3.9037115920e-17,0.0000000000e+00,0.0000000000e+00,2.8512783310e+01
72,1.3980441250e-01,-3.9603084130e-17,0.0000000000e+00,0.0000000000e+00,2.7717852700e+01
73,1.4180235930e-01,-4.0169052350e-17,0.0000000000e+00,0.0000000000e+00,2.6921627550e+01
74,1.4380030600e-01,-4.0735020570e-17,0.0000000000e+00,0.0000000000e+00,2.6467438030e+01
75,1.4579825280e-01,-4.1300988780e-17,0.0000000000e+00,0.0000000000e+00,2.6417948660e+01
76,1.4779619960e-01,-4.1866957000e-17,0.0000000000e+00,0.0000000000e+00,2.6650032380e+01
77,1.4979414630e-01,-4.2432925210e-17,0.0000000000e+00,0.0000000000e+00,2.6712967240e+01
78,1.5179209310e-01,-4.2998893430e-17,0.0000000000e+00,0.0000000000e+00,2.6372333610e+01
79,1.5379003990e-01,-4.3564861640e-17,0.0000000000e+00,0.0000000000e+00,2.5725249680e+01
80,1.5578798660e-01,-4.4130829860e-17,0.0000000000e+00,0.0000000000e+00,2.4886985470e+01
81,1.5778593340e-01,-4.4696798070e-17,0.0000000000e+00,0.0000000000e+00,2.3951931900e+01
82,1.5978388020e-01,-4.5262766290e-17,0.0000000000e+00,0.0000000000e+00,2.3028789030e+01
83,1.6178182690e-01,-4.5828734500e-17,0.0000000000e+00,0.0000000000e+00,2.2163151950e+01
84,1.6377977370e-01,-4.6394702720e-17,0.0000000000e+00,0.0000000000e+00,2.1720347530e+01
85,1.6577772040e-01,-4.6960670930e-17,0.0000000000e+00,0.0000000000e+00,2.1780945870e+01
86,1.6777566720e-01,-4.7526639150e-17,0.0000000000e+00,0.0000000000e+00,2.1866544310e+01
87,1.6977361400e-01,-4.8092607360e-17,0.0000000000e+00,0.0000000000e+00,2.1803631730e+01
88,1.7177156070e-01,-4.8658575580e-17,0.0000000000e+00,0.0000000000e+00,2.1581282620e+01
89,1.7376950750e-01,-4.9224543790e-17,0.0000000000e+00,0.0000000000e+00,2.1072432120e+01
90,1.7576745430e-01,-4.9790512010e-17,0.0000000000e+00,0.0000000000e+00,2.0283375390e+01
91,1.7776540100e-01,-5.0356480220e-17,0.0000000000e+00,0.0000000000e+00,1.9277258830e+01
92,1.7976334780e-01,-5.0922448440e-17,0.0000000000e+00,0.0000000000e+00,1.8316325570e+01
93,1.8176129460e-01,-5.1488416650e-17,0.0000000000e+00,0.0000000000e+00,1.7725267170e+01
94,1.8375924130e-01,-5.2054384870e-17,0.0000000000e+00,0.0000000000e+00,1.7421587110e+01
95,1.8575718810e-01,-5.2620353080e-17,0.0000000000e+00,0.0000000000e+00,1.7177729150e+01
96,1.8775513490e-01,-5.3186321300e-17,0.0000000000e+00,0.0000000000e+00,1.6759881490e+01
97,1.8975308160e-01,-5.3752289510e-17,0.0000000000e+00,0.0000000000e+00,1.6155206340e+01
98,1.9175102840e-01,-5.4318257730e-17,0.0000000000e+00,0.0000000000e+00,1.5615342840e+01
99,1.9374897510e-01,-5.4884225940e-17,0.0000000000e+00,0.0000000000e+00,1.5287860580e+01
100,1.9574692190e-01,-5.5450194160e-17,0.0000000000e+00,0.0000000000e+00,1.4853012550e+01
101,1.9774486870e-01,-5.6016162370e-17,0.0000000000e+00,0.0000000000e+00,1.3891777700e+01
102,1.9974281540e-01,-5.6582130590e-17,0.0000000000e+00,0.0000000000e+00,1.2840774520e+01
103,2.0174076220e-01,-5.7148098800e-17,0.0000000000e+00,0.0000000000e+00,1.2107354770e+01
104,2.0373870900e-01,-5.7714067020e-17,0.0000000000e+00,0.0000000000e+00,1.1702579860e+01
105,2.0573665570e-01,-5.8280035230e-17,0.0000000000e+00,0.0000000000e+00,1.1512404570e+01
106,2.0773460250e-01,-5.8846003450e-17,0.0000000000e+00,0.0000000000e+00,1.1291678870e+01
107,2.0973254930e-01,-5.9411971660e-17,0.0000000000e+00,0.0000000000e+00,1.0936402690e+01
108,2.1173049600e-01,-5.9977939880e-17,0.0000000000e+00,0.0000000000e+00,1.0284225180e+01
109,2.1372844280e-01,-6.0543908090e-17,0.0000000000e+00,0.0000000000e+00,9.2806888730e+00
110,2.1572638960e-01,-6.1109876310e-17,0.0000000000e+00,0.0000000000e+00,7.8887726400e+00
111,2.1772433630e-01,-6.1675844520e-17,0.0000000000e+00,0.0000000000e+00,6.4893437870e+00
112,2.1972228310e-01,-6.2241812740e-17,0.0000000000e+00,0.0000000000e+00,5.4568251780e+00
113,2.2172022990e-01,-6.2807780950e-17,0.0000000000e+00,0.0000000000e+00,4.9402150980e+00
114,2.2371817660e-01,-6.3373749170e-17,0.0000000000e+00,0.0000000000e+00,5.0107854250e+00
115,2.2571612340e-01,-6.3939717380e-17,0.0000000000e+00,0.0000000000e+00,5.2532910530e+00
116,2.2771407010e-01,-6.4505685600e-17,0.0000000000e+00,0.0000000000e+00,5.2097720450e+00
117,2.2971201690e-01,-6.5071653810e-17,0.0000000000e+00,0.0000000000e+00,4.6549329830e+00
118,2.3170996370e-01,-6.5637622030e-17,0.0000000000e+00,0.0000000000e+00,3.5439556160e+00
119,2.3370791040e-01,-6.6203590240e-17,0.0000000000e+00,0.0000000000e+00,2.1170322250e+00
120,2.3570585720e-01,-6.6769558460e-17,0.0000000000e+00,0.0000000000e+00,8.7959422090e-01
121,2.3770380400e-01,-6.7335526670e-17,0.0000000000e+00,0.0000000000e+00,-2.0495641190e-02
122,2.3970175070e-01,-6.7901494890e-17,0.0000000000e+00,0.0000000000e+00,-4.4411055660e-01
123,2.4169969750e-01,-6.8467463100e-17,0.0000000000e+00,0.0000000000e+00,-4.9203851860e-01
124,2.4369764430e-01,-6.9033431320e-17,0.0000000000e+00,0.0000000000e+00,-7.0897432830e-01
125,2.4569559100e-01,-6.9599399540e-17,0.0000000000e+00,0.0000000000e+00,-1.1623644680e+00
126,2.4769353780e-01,-7.0165367750e-17,0.0000000000e+00,0.0000000000e+00,-1.7738934880e+00
127,2.4969148460e-01,-7.0731335970e-17,0.0000000000e+00,0.0000000000e+00,-2.5295196580e+00
128,2.5168943130e-01,-7.1297304180e-17,0.0000000000e+00,0.0000000000e+00,-3.3860008420e+00
129,2.5368737810e-01,-7.1863272400e-17,0.0000000000e+00,0.0000000000e+00,-4.5005952830e+00
130,2.5568532480e-01,-7.2429240610e-17,0.0000000000e+00,0.0000000000e+00,-5.6485305880e+00
131,2.5768327160e-01,-7.2995208830e-17,0.0000000000e+00,0.0000000000e+00,-6.5665018610e+00
132,2.5968121840e-01,-7.3561177040e-17,0.0000000000e+00,0.0000000000e+00,-7.0980481060e+00
133,2.6167916510e-01,-7.4127145260e-17,0.0000000000e+00,0.0000000000e+00,-7.1242573460e+00
134,2.6367711190e-01,-7.4693113470e-17,0.0000000000e+00,0.0000000000e+00,-7.0196828840e+00
135,2.6567505870e-01,-7.5259081690e-17,0.0000000000e+00,0.0000000000e+00,-7.0697857160e+00
136,2.6767300540e-01,-7.5825049900e-17,0.0000000000e+00,0.0000000000e+00,-7.3592739270e+00
137,2.6967095220e-01,-7.6391018120e-17,0.0000000000e+00,0.0000000000e+00,-7.9414513360e+00
138,2.7166889900e-01,-7.6956986330e-17,0.0000000000e+00,0.0000000000e+00,-9.0501182620e+00
139,2.7366684570e-01,-7.7522954550e-17,0.0000000000e+00,0.0000000000e+00,-1.0619973790e+01
140,2.7566479250e-01,-7.8088922760e-17,0.0000000000e+00,0.0000000000e+00,-1.2000784190e+01
141,2.7766273930e-01,-7.8654890980e-17,0.0000000000e+00,0.0000000000e+00,-1.2831975300e+01
142,2.7966068600e-01,-7.9220859190e-17,0.0000000000e+00,0.0000000000e+00,-1.3134471030e+01
143,2.8165863280e-01,-7.9786827410e-17,0.0000000000e+00,0.0000000000e+00,-1.3190983450e+01
144,2.8365657960e-01,-8.0352795620e-17,0.0000000000e+00,0.0000000000e+00,-1.3448916280e+01
145,2.8565452630e-01,-8.0918763840e-17,0.0000000000e+00,0.0000000000e+00,-1.4086714400e+01
146,2.8765247310e-01,-8.1484732050e-17,0.0000000000e+00,0.0000000000e+00,-1.4918669940e+01
147,2.8965041980e-01,-8.2050700270e-17,0.0000000000e+00,0.0000000000e+00,-1.5429323580e+01
148,2.9164836660e-01,-8.2616668480e-17,0.0000000000e+00,0.0000000000e+00,-1.5720883270e+01
149,2.9364631340e-01,-8.3182636700e-17,0.0000000000e+00,0.0000000000e+00,-1.6369122070e+01
150,2.9564426010e-01,-8.3748604910e-17,0.0000000000e+00,0.0000000000e+00,-1.7939821770e+01
151,2.9764220690e-01,-8.4314573130e-17,0.0000000000e+00,0.0000000000e+00,-1.9736182240e+01
152,2.9964015370e-01,-8.4880541340e-17,0.0000000000e+00,0.0000000000e+00,-2.0125244170e+01
153,3.0163810040e-01,-8.5446509560e-17,0.0000000000e+00,0.0000000000e+00,-1.9555214510e+01
154,3.0363604720e-01,-8.6012477770e-17,0.0000000000e+00,0.0000000000e+00,-1.9346997520e+01
155,3.0563399400e-01,-8.6578445990e-17,0.0000000000e+00,0.0000000000e+00,-1.9486860670e+01
156,3.0763194070e-01,-8.7144414200e-17,0.0000000000e+00,0.0000000000e+00,-1.9686440030e+01
157,3.0962988750e-01,-8.7710382420e-17,0.0000000000e+00,0.0000000000e+00,-2.0181654970e+01
158,3.1162783430e-01,-8.8276350630e-17,0.0000000000e+00,0.0000000000e+00,-2.1193091010e+01
159,3.1362578100e-01,-8.8842318850e-17,0.0000000000e+00,0.0000000000e+00,-2.2619919420e+01
160,3.1562372780e-01,-8.9408287060e-17,0.0000000000e+00,0.0000000000e+00,-2.3846248340e+01
161,3.1762167450e-01,-8.9974255280e-17,0.0000000000e+00,0.0000000000e+00,-2.4597915080e+01
162,3.1961962130e-01,-9.0540223490e-17,0.0000000000e+00,0.0000000000e+00,-2.4841926820e+01
163,3.2161756810e-01,-9.1106191710e-17,0.0000000000e+00,0.0000000000e+00,-2.4561033940e+01
164,3.2361551480e-01,-9.1672159920e-17,0.0000000000e+00,0.0000000000e+00,-2.4228114760e+01
165,3.2561346160e-01,-9.2238128140e-17,0.0000000000e+00,0.0000000000e+00,-2.4133876410e+01
166,3.2761140840e-01,-9.2804096350e-17,0.0000000000e+00,0.0000000000e+00,-2.4424290020e+01
167,3.2960935510e-01,-9.3370064570e-17,0.0000000000e+00,0.0000000000e+00,-2.5194513880e+01
168,3.3160730190e-01,-9.3936032780e-17,0.0000000000e+00,0.0000000000e+00,-2.6402380530e+01
169,3.3360524870e-01,-9.4502001000e-17,0.0000000000e+00,0.0000000000e+00,-2.7514061940e+01
170,3.3560319540e-01,-9.5067969210e-17,0.0000000000e+00,0.0000000000e+00,-2.8149494020e+01
171,3.3760114220e-01,-9.5633937430e-17,0.0000000000e+00,0.0000000000e+00,-2.8288280680e+01
172,3.3959908900e-01,-9.6199905640e-17,0.0000000000e+00,0.0000000000e+00,-2.8084255710e+01
173,3.4159703570e-01,-9.6765873860e-17,0.0000000000e+00,0.0000000000e+00,-2.7891074210e+01
174,3.4359498250e-01,-9.7331842080e-17,0.0000000000e+00,0.0000000000e+00,-2.7771819490e+01
175,3.4559292930e-01,-9.7897810290e-17,0.0000000000e+00,0.0000000000e+00,-2.7832187690e+01
176,3.4759087600e-01,-9.8463778510e-17,0.0000000000e+00,0.0000000000e+00,-2.8102999730e+01
177,3.4958882280e-01,-9.9029746720e-17,0.0000000000e+00,0.0000000000e+00,-2.8541124850e+01
178,3.5158676950e-01,-9.9595714940e-17,0.0000000000e+00,0.0000000000e+00,-2.9298936340e+01
179,3.5358471630e-01,-1.0016168320e-16,0.0000000000e+00,0.0000000000e+00,-3.0004727940e+01
180,3.5558266310e-01,-1.0072765140e-16,0.0000000000e+00,0.0000000000e+00,-3.0386125770e+01
181,3.5758060980e-01,-1.0129361960e-16,0.0000000000e+00,0.0000000000e+00,-3.0499460840e+01
182,3.5957855660e-01,-1.0185958780e-16,0.0000000000e+00,0.0000000000e+00,-3.0361203440e+01
183,3.6157650340e-01,-1.0242555600e-16,0.0000000000e+00,0.0000000000e+00,-3.0265315520e+01
184,3.6357445010e-01,-1.0299152420e-16,0.0000000000e+00,0.0000000000e+00,-3.0429489560e+01
185,3.6557239690e-01,-1.0355749240e-16,0.0000000000e+00,0.0000000000e+00,-3.0901793380e+01
186,3.6757034370e-01,-1.0412346070e-16,0.0000000000e+00,0.0000000000e+00,-3.1583767430e+01
187,3.6956829040e-01,-1.0468942890e-16,0.0000000000e+00,0.0000000000e+00,-3.2205868760e+01
188,3.7156623720e-01,-1.0525539710e-16,0.0000000000e+00,0.0000000000e+00,-3.2500658040e+01
189,3.7356418400e-01,-1.0582136530e-16,0.0000000000e+00,0.0000000000e+00,-3.2448904860e+01
190,3.7556213070e-01,-1.0638733350e-16,0.0000000000e+00,0.0000000000e+00,-3.2149084090e+01
191,3.7756007750e-01,-1.0695330170e-16,0.0000000000e+00,0.0000000000e+00,-3.1723635220e+01
192,3.7955802420e-01,-1.0751926990e-16,0.0000000000e+00,0.0000000000e+00,-3.1217831400e+01
193,3.8155597100e-01,-1.0808523820e-16,0.0000000000e+00,0.0000000000e+00,-3.0715333730e+01
194,3.8355391780e-01,-1.0865120640e-16,0.0000000000e+00,0.0000000000e+00,-3.0486934530e+01
195,3.8555186450e-01,-1.0921717460e-16,0.0000000000e+00,0.0000000000e+00,-3.0839363220e+01
196,3.8754981130e-01,-1.0978314280e-16,0.0000000000e+00,0.0000000000e+00,-3.1825141200e+01
197,3.8954775810e-01,-1.1034911100e-16,0.0000000000e+00,0.0000000000e+00,-3.2660933650e+01
198,3.9154570480e-01,-1.1091507920e-16,0.0000000000e+00,0.0000000000e+00,-3.2754064910e+01
199,3.9354365160e-01,-1.1148104750e-16,0.0000000000e+00,0.0000000000e+00,-3.2333012170e+01
200,3.9554159840e-01,-1.1204701570e-16,0.0000000000e+00,0.0000000000e+00,-3.1695250470e+01
201,3.9753954510e-01,-1.1261298390e-16,0.0000000000e+00,0.0000000000e+00,-3.1113825550e+01
202,3.9953749190e-01,-1.1317895210e-16,0.0000000000e+00,0.0000000000e+00,-3.0808102560e+01
203,4.0153543870e-01,-1.1374492030e-16,0.0000000000e+00,0.0000000000e+00,-3.1002442740e+01
204,4.0353338540e-01,-1.1431088850e-16,0.0000000000e+00,0.0000000000e+00,-3.1665237760e+01
205,4.0553133220e-01,-1.1487685670e-16,0.0000000000e+00,0.0000000000e+00,-3.2237427400e+01
206,4.0752927890e-01,-1.1544282500e-16,0.0000000000e+00,0.0000000000e+00,-3.2444547470e+01
207,4.0952722570e-01,-1.1600879320e-16,0.0000000000e+00,0.0000000000e+00,-3.2199468450e+01
208,4.1152517250e-01,-1.1657476140e-16,0.0000000000e+00,0.0000000000e+00,-3.1573911250e+01
209,4.1352311920e-01,-1.1714072960e-16,0.0000000000e+00,0.0000000000e+00,-3.1065285340e+01
210,4.1552106600e-01,-1.1770669780e-16,0.0000000000e+00,0.0000000000e+00,-3.0870679690e+01
211,4.1751901280e-01,-1.1827266600e-16,0.0000000000e+00,0.0000000000e+00,-3.0757828350e+01
212,4.1951695950e-01,-1.1883863420e-16,0.0000000000e+00,0.0000000000e+00,-3.0334048550e+01
213,4.2151490630e-01,-1.1940460250e-16,0.0000000000e+00,0.0000000000e+00,-2.9918664070e+01
214,4.2351285310e-01,-1.1997057070e-16,0.0000000000e+00,0.0000000000e+00,-2.9981016500e+01
215,4.2551079980e-01,-1.2053653890e-16,0.0000000000e+00,0.0000000000e+00,-3.0655729250e+01
216,4.2750874660e-01,-1.2110250710e-16,0.0000000000e+00,0.0000000000e+00,-3.1442763520e+01
217,4.2950669340e-01,-1.2166847530e-16,0.0000000000e+00,0.0000000000e+00,-3.1406632840e+01
218,4.3150464010e-01,-1.2223444350e-16,0.0000000000e+00,0.0000000000e+00,-3.0678099250e+01
219,4.3350258690e-01,-1.2280041180e-16,0.0000000000e+00,0.0000000000e+00,-2.9783861500e+01
220,4.3550053370e-01,-1.2336638000e-16,0.0000000000e+00,0.0000000000e+00,-2.8864008220e+01
221,4.3749848040e-01,-1.2393234820e-16,0.0000000000e+00,0.0000000000e+00,-2.8141239210e+01
