nodenumber,x-coordinate,y-coordinate,pressure,x-velocity,y-velocity
1,0.0000000000e+00,0.0000000000e+00,0.0000000000e+00,0.0000000000e+00,7.1818073520e+01
2,1.0130973630e-03,-2.8698507720e-19,0.0000000000e+00,0.0000000000e+00,6.5286251860e+01
3,2.2220913800e-03,-6.2946276370e-19,0.0000000000e+00,0.0000000000e+00,5.5884898130e+01
4,3.9473965850e-03,-1.1181984620e-18,0.0000000000e+00,0.0000000000e+00,5.2083755400e+01
5,5.9419792880e-03,-1.6832137230e-18,0.0000000000e+00,0.0000000000e+00,5.2582483630e+01
6,7.9399260530e-03,-2.2491819380e-18,0.0000000000e+00,0.0000000000e+00,5.1426718470e+01
7,9.9378728170e-03,-2.8151501530e-18,0.0000000000e+00,0.0000000000e+00,4.9625225160e+01
8,1.1935819580e-02,-3.3811183680e-18,0.0000000000e+00,0.0000000000e+00,4.8238411250e+01
9,1.3933766350e-02,-3.9470865830e-18,0.0000000000e+00,0.0000000000e+00,4.7092726440e+01
10,1.5931713110e-02,-4.5130547990e-18,0.0000000000e+00,0.0000000000e+00,4.6202692880e+01
11,1.7929659880e-02,-5.0790230140e-18,0.0000000000e+00,0.0000000000e+00,4.5575047010e+01
12,1.9927606640e-02,-5.6449912290e-18,0.0000000000e+00,0.0000000000e+00,4.5152233820e+01
13,2.1925553400e-02,-6.2109594440e-18,0.0000000000e+00,0.0000000000e+00,4.4846786530e+01
14,2.3923500170e-02,-6.7769276590e-18,0.0000000000e+00,0.0000000000e+00,4.4725527150e+01
15,2.5921446930e-02,-7.3428958740e-18,0.0000000000e+00,0.0000000000e+00,4.5149975410e+01
16,2.7919393700e-02,-7.9088640890e-18,0.0000000000e+00,0.0000000000e+00,4.5815213220e+01
17,2.9917340460e-02,-8.4748323040e-18,0.0000000000e+00,0.0000000000e+00,4.6057764920e+01
18,3.1915287230e-02,-9.0408005190e-18,0.0000000000e+00,0.0000000000e+00,4.4691827610e+01
19,3.3913233990e-02,-9.6067687340e-18,0.0000000000e+00,0.0000000000e+00,4.2556994350e+01
20,3.5911180760e-02,-1.0172736950e-17,0.0000000000e+00,0.0000000000e+00,4.0951027820e+01
21,3.7909127520e-02,-1.0738705160e-17,0.0000000000e+00,0.0000000000e+00,3.9914047300e+01
22,3.9907074280e-02,-1.1304673380e-17,0.0000000000e+00,0.0000000000e+00,3.9795155470e+01
23,4.1905021050e-02,-1.1870641590e-17,0.0000000000e+00,0.0000000000e+00,4.0002427430e+01
24,4.3902967810e-02,-1.2436609810e-17,0.0000000000e+00,0.0000000000e+00,4.0128401630e+01
25,4.5900914580e-02,-1.3002578030e-17,0.0000000000e+00,0.0000000000e+00,4.0063797980e+01
26,4.7898861340e-02,-1.3568546240e-17,0.0000000000e+00,0.0000000000e+00,3.9781226210e+01
27,4.9896808110e-02,-1.4134514460e-17,0.0000000000e+00,0.0000000000e+00,3.9161759260e+01
28,5.1894754870e-02,-1.4700482670e-17,0.0000000000e+00,0.0000000000e+00,3.8558697700e+01
29,5.3892701640e-02,-1.5266450890e-17,0.0000000000e+00,0.0000000000e+00,3.8354487200e+01
30,5.5890648400e-02,-1.5832419100e-17,0.0000000000e+00,0.0000000000e+00,3.8290201150e+01
31,5.7888595160e-02,-1.6398387320e-17,0.0000000000e+00,0.0000000000e+00,3.8255797170e+01
32,5.9886541930e-02,-1.6964355530e-17,0.0000000000e+00,0.0000000000e+00,3.8319302790e+01
33,6.1884488690e-02,-1.7530323750e-17,0.0000000000e+00,0.0000000000e+00,3.8253589240e+01
34,6.3882435460e-02,-1.8096291960e-17,0.0000000000e+00,0.0000000000e+00,3.7829565980e+01
35,6.5880382220e-02,-1.8662260180e-17,0.0000000000e+00,0.0000000000e+00,3.7183427880e+01
36,6.7878328990e-02,-1.9228228390e-17,0.0000000000e+00,0.0000000000e+00,3.6591005610e+01
37,6.9876275750e-02,-1.9794196610e-17,0.0000000000e+00,0.0000000000e+00,3.6159573960e+01
38,7.1874222520e-02,-2.0360164820e-17,0.0000000000e+00,0.0000000000e+00,3.5862167640e+01
39,7.3872169280e-02,-2.0926133040e-17,0.0000000000e+00,0.0000000000e+00,3.5702004860e+01
40,7.5870116050e-02,-2.1492101250e-17,0.0000000000e+00,0.0000000000e+00,3.5708068190e+01
41,7.7868062810e-02,-2.2058069470e-17,0.0000000000e+00,0.0000000000e+00,3.5761324110e+01
42,7.9866009570e-02,-2.2624037680e-17,0.0000000000e+00,0.0000000000e+00,3.5696672930e+01
43,8.1863956340e-02,-2.3190005900e-17,0.0000000000e+00,0.0000000000e+00,3.5433114000e+01
44,8.3861903100e-02,-2.3755974110e-17,0.0000000000e+00,0.0000000000e+00,3.4979409310e+01
45,8.5859849870e-02,-2.4321942330e-17,0.0000000000e+00,0.0000000000e+00,3.4444741200e+01
46,8.7857796630e-02,-2.4887910540e-17,0.0000000000e+00,0.0000000000e+00,3.4001848260e+01
47,8.9855743400e-02,-2.5453878760e-17,0.0000000000e+00,0.0000000000e+00,3.3637387610e+01
48,9.1853690160e-02,-2.6019846970e-17,0.0000000000e+00,0.0000000000e+00,3.3372376580e+01
49,9.3851636930e-02,-2.6585815190e-17,0.0000000000e+00,0.0000000000e+00,3.3304955000e+01
50,9.5849583690e-02,-2.7151783400e-17,0.0000000000e+00,0.0000000000e+00,3.3281345070e+01
51,9.7847530450e-02,-2.7717751620e-17,0.0000000000e+00,0.0000000000e+00,3.3181056280e+01
52,9.9845477220e-02,-2.8283719830e-17,0.0000000000e+00,0.0000000000e+00,3.2978862750e+01
53,1.0184342400e-01,-2.8849688050e-17,0.0000000000e+00,0.0000000000e+00,3.2584363370e+01
54,1.0384137070e-01,-2.9415656260e-17,0.0000000000e+00,0.0000000000e+00,3.2024186890e+01
55,1.0583931750e-01,-2.9981624480e-17,0.0000000000e+00,0.0000000000e+00,3.1529559940e+01
56,1.0783726430e-01,-3.0547592690e-17,0.0000000000e+00,0.0000000000e+00,3.1182962390e+01
57,1.0983521100e-01,-3.1113560910e-17,0.0000000000e+00,0.0000000000e+00,3.1056713650e+01
58,1.1183315780e-01,-3.1679529120e-17,0.0000000000e+00,0.0000000000e+00,3.1214359710e+01
59,1.1383110460e-01,-3.2245497340e-17,0.0000000000e+00,0.0000000000e+00,3.1400094810e+01
60,1.1582905130e-01,-3.2811465550e-17,0.0000000000e+00,0.0000000000e+00,3.1321924970e+01
61,1.1782699810e-01,-3.3377433770e-17,0.0000000000e+00,0.0000000000e+00,3.0885164390e+01
62,1.1982494490e-01,-3.3943401980e-17,0.0000000000e+00,0.0000000000e+00,3.0194989560e+01
63,1.2182289160e-01,-3.4509370200e-17,0.0000000000e+00,0.0000000000e+00,2.9397368050e+01
64,1.2382083840e-01,-3.5075338410e-17,0.0000000000e+00,0.0000000000e+00,2.8748411900e+01
65,1.2581878520e-01,-3.5641306630e-17,0.0000000000e+00,0.0000000000e+00,2.8425303270e+01
66,1.2781673190e-01,-3.6207274840e-17,0.0000000000e+00,0.0000000000e+00,2.8303448420e+01
67,1.2981467870e-01,-3.6773243060e-17,0.0000000000e+00,0.0000000000e+00,2.8206045500e+01
68,1.3181262550e-01,-3.7339211270e-17,0.0000000000e+00,0.0000000000e+00,2.8014553340e+01
69,1.3381057220e-01,-3.7905179490e-17,0.0000000000e+00,0.0000000000e+00,2.7773826090e+01
70,1.3580851900e-01,-3.8471147700e-17,0.0000000000e+00,0.0000000000e+00,2.7471268090e+01
71,1.3780646570e-01,-3.9037115920e-17,0.0000000000e+00,0.0000000000e+00,2.6961821370e+01
72,1.3980441250e-01,-3.9603084130e-17,0.0000000000e+00,0.0000000000e+00,2.6136819710e+01
73,1.4180235930e-01,-4.0169052350e-17,0.0000000000e+00,0.0000000000e+00,2.5308396790e+01
74,1.4380030600e-01,-4.0735020570e-17,0.0000000000e+00,0.0000000000e+00,2.4822124490e+01
75,1.4579825280e-01,-4.1300988780e-17,0.0000000000e+00,0.0000000000e+00,2.4739383450e+01
76,1.4779619960e-01,-4.1866957000e-17,0.0000000000e+00,0.0000000000e+00,2.4936939180e+01
77,1.4979414630e-01,-4.2432925210e-17,0.0000000000e+00,0.0000000000e+00,2.4966360240e+01
78,1.5179209310e-01,-4.2998893430e-17,0.0000000000e+00,0.0000000000e+00,2.4592397480e+01
79,1.5379003990e-01,-4.3564861640e-17,0.0000000000e+00,0.0000000000e+00,2.3913107760e+01
80,1.5578798660e-01,-4.4130829860e-17,0.0000000000e+00,0.0000000000e+00,2.3040867340e+01
81,1.5778593340e-01,-4.4696798070e-17,0.0000000000e+00,0.0000000000e+00,2.2070491350e+01
82,1.5978388020e-01,-4.5262766290e-17,0.0000000000e+00,0.0000000000e+00,2.1108868050e+01
83,1.6178182690e-01,-4.5828734500e-17,0.0000000000e+00,0.0000000000e+00,2.0203635420e+01
84,1.6377977370e-01,-4.6394702720e-17,0.0000000000e+00,0.0000000000e+00,1.9726166730e+01
85,1.6577772040e-01,-4.6960670930e-17,0.0000000000e+00,0.0000000000e+00,1.9750118250e+01
86,1.6777566720e-01,-4.7526639150e-17,0.0000000000e+00,0.0000000000e+00,1.9795403230e+01
87,1.6977361400e-01,-4.8092607360e-17,0.0000000000e+00,0.0000000000e+00,1.9695976350e+01
88,1.7177156070e-01,-4.8658575580e-17,0.0000000000e+00,0.0000000000e+00,1.9439154810e+01
89,1.7376950750e-01,-4.9224543790e-17,0.0000000000e+00,0.0000000000e+00,1.8893746370e+01
90,1.7576745430e-01,-4.9790512010e-17,0.0000000000e+00,0.0000000000e+00,1.8066999900e+01
91,1.7776540100e-01,-5.0356480220e-17,0.0000000000e+00,0.0000000000e+00,1.7021511580e+01
92,1.7976334780e-01,-5.0922448440e-17,0.0000000000e+00,0.0000000000e+00,1.6018356200e+01
93,1.8176129460e-01,-5.1488416650e-17,0.0000000000e+00,0.0000000000e+00,1.5384978140e+01
94,1.8375924130e-01,-5.2054384870e-17,0.0000000000e+00,0.0000000000e+00,1.5038923420e+01
95,1.8575718810e-01,-5.2620353080e-17,0.0000000000e+00,0.0000000000e+00,1.4751510400e+01
96,1.8775513490e-01,-5.3186321300e-17,0.0000000000e+00,0.0000000000e+00,1.4293107340e+01
97,1.8975308160e-01,-5.3752289510e-17,0.0000000000e+00,0.0000000000e+00,1.3650411340e+01
98,1.9175102840e-01,-5.4318257730e-17,0.0000000000e+00,0.0000000000e+00,1.3069998740e+01
99,1.9374897510e-01,-5.4884225940e-17,0.0000000000e+00,0.0000000000e+00,1.2701618240e+01
100,1.9574692190e-01,-5.5450194160e-17,0.0000000000e+00,0.0000000000e+00,1.2227766030e+01
101,1.9774486870e-01,-5.6016162370e-17,0.0000000000e+00,0.0000000000e+00,1.1224969130e+01
102,1.9974281540e-01,-5.6582130590e-17,0.0000000000e+00,0.0000000000e+00,1.0128548740e+01
103,2.0174076220e-01,-5.7148098800e-17,0.0000000000e+00,0.0000000000e+00,9.3470265230e+00
104,2.0373870900e-01,-5.7714067020e-17,0.0000000000e+00,0.0000000000e+00,8.8969579480e+00
105,2.0573665570e-01,-5.8280035230e-17,0.0000000000e+00,0.0000000000e+00,8.6645023090e+00
106,2.0773460250e-01,-5.8846003450e-17,0.0000000000e+00,0.0000000000e+00,8.4015548150e+00
107,2.0973254930e-01,-5.9411971660e-17,0.0000000000e+00,0.0000000000e+00,8.0057302270e+00
108,2.1173049600e-01,-5.9977939880e-17,0.0000000000e+00,0.0000000000e+00,7.3104274990e+00
109,2.1372844280e-01,-6.0543908090e-17,0.0000000000e+00,0.0000000000e+00,6.2614629940e+00
110,2.1572638960e-01,-6.1109876310e-17,0.0000000000e+00,0.0000000000e+00,4.8245587960e+00
111,2.1772433630e-01,-6.1675844520e-17,0.0000000000e+00,0.0000000000e+00,3.3772542830e+00
112,2.1972228310e-01,-6.2241812740e-17,0.0000000000e+00,0.0000000000e+00,2.2993000180e+00
113,2.2172022990e-01,-6.2807780950e-17,0.0000000000e+00,0.0000000000e+00,1.7398068960e+00
114,2.2371817660e-01,-6.3373749170e-17,0.0000000000e+00,0.0000000000e+00,1.7659072430e+00
115,2.2571612340e-01,-6.3939717380e-17,0.0000000000e+00,0.0000000000e+00,1.9673648940e+00
116,2.2771407010e-01,-6.4505685600e-17,0.0000000000e+00,0.0000000000e+00,1.8798730420e+00
117,2.2971201690e-01,-6.5071653810e-17,0.0000000000e+00,0.0000000000e+00,1.2759610680e+00
118,2.3170996370e-01,-6.5637622030e-17,0.0000000000e+00,0.0000000000e+00,1.2316941030e-01
119,2.3370791040e-01,-6.6203590240e-17,0.0000000000e+00,0.0000000000e+00,-1.3454971590e+00
120,2.3570585720e-01,-6.6769558460e-17,0.0000000000e+00,0.0000000000e+00,-2.6356777680e+00
121,2.3770380400e-01,-6.7335526670e-17,0.0000000000e+00,0.0000000000e+00,-3.5865063410e+00
122,2.3970175070e-01,-6.7901494890e-17,0.0000000000e+00,0.0000000000e+00,-4.0518735560e+00
123,2.4169969750e-01,-6.8467463100e-17,0.0000000000e+00,0.0000000000e+00,-4.1373168090e+00
124,2.4369764430e-01,-6.9033431320e-17,0.0000000000e+00,0.0000000000e+00,-4.3976891420e+00
125,2.4569559100e-01,-6.9599399540e-17,0.0000000000e+00,0.0000000000e+00,-4.8995218940e+00
126,2.4769353780e-01,-7.0165367750e-17,0.0000000000e+00,0.0000000000e+00,-5.5557900500e+00
127,2.4969148460e-01,-7.0731335970e-17,0.0000000000e+00,0.0000000000e+00,-6.3547120070e+00
128,2.5168943130e-01,-7.1297304180e-17,0.0000000000e+00,0.0000000000e+00,-7.2536663600e+00
129,2.5368737810e-01,-7.1863272400e-17,0.0000000000e+00,0.0000000000e+00,-8.4140096030e+00
130,2.5568532480e-01,-7.2429240610e-17,0.0000000000e+00,0.0000000000e+00,-9.6105285150e+00
131,2.5768327160e-01,-7.2995208830e-17,0.0000000000e+00,0.0000000000e+00,-1.0572433360e+01
132,2.5968121840e-01,-7.3561177040e-17,0.0000000000e+00,0.0000000000e+00,-1.1145138890e+01
133,2.6167916510e-01,-7.4127145260e-17,0.0000000000e+00,0.0000000000e+00,-1.1213733110e+01
134,2.6367711190e-01,-7.4693113470e-17,0.0000000000e+00,0.0000000000e+00,-1.1151471620e+01
135,2.6567505870e-01,-7.5259081690e-17,0.0000000000e+00,0.0000000000e+00,-1.1244115820e+01
136,2.6767300540e-01,-7.5825049900e-17,0.0000000000e+00,0.0000000000e+00,-1.1571091100e+01
137,2.6967095220e-01,-7.6391018120e-17,0.0000000000e+00,0.0000000000e+00,-1.2191790950e+01
138,2.7166889900e-01,-7.6956986330e-17,0.0000000000e+00,0.0000000000e+00,-1.3346954800e+01
139,2.7366684570e-01,-7.7522954550e-17,0.0000000000e+00,0.0000000000e+00,-1.4961487670e+01
140,2.7566479250e-01,-7.8088922760e-17,0.0000000000e+00,0.0000000000e+00,-1.6385716880e+01
141,2.7766273930e-01,-7.8654890980e-17,0.0000000000e+00,0.0000000000e+00,-1.7257761440e+01
142,2.7966068600e-01,-7.9220859190e-17,0.0000000000e+00,0.0000000000e+00,-1.7595955400e+01
143,2.8165863280e-01,-7.9786827410e-17,0.0000000000e+00,0.0000000000e+00,-1.7690856340e+01
144,2.8365657960e-01,-8.0352795620e-17,0.0000000000e+00,0.0000000000e+00,-1.7990164080e+01
145,2.8565452630e-01,-8.0918763840e-17,0.0000000000e+00,0.0000000000e+00,-1.8665753620e+01
146,2.8765247310e-01,-8.1484732050e-17,0.0000000000e+00,0.0000000000e+00,-1.9533225450e+01
147,2.8965041980e-01,-8.2050700270e-17,0.0000000000e+00,0.0000000000e+00,-2.0082044180e+01
148,2.9164836660e-01,-8.2616668480e-17,0.0000000000e+00,0.0000000000e+00,-2.0417781580e+01
149,2.9364631340e-01,-8.3182636700e-17,0.0000000000e+00,0.0000000000e+00,-2.1099574960e+01
150,2.9564426010e-01,-8.3748604910e-17,0.0000000000e+00,0.0000000000e+00,-2.2702358530e+01
151,2.9764220690e-01,-8.4314573130e-17,0.0000000000e+00,0.0000000000e+00,-2.4541787200e+01
152,2.9964015370e-01,-8.4880541340e-17,0.0000000000e+00,0.0000000000e+00,-2.4962908230e+01
153,3.0163810040e-01,-8.5446509560e-17,0.0000000000e+00,0.0000000000e+00,-2.4418055480e+01
154,3.0363604720e-01,-8.6012477770e-17,0.0000000000e+00,0.0000000000e+00,-2.4241352000e+01
155,3.0563399400e-01,-8.6578445990e-17,0.0000000000e+00,0.0000000000e+00,-2.4416294900e+01
156,3.0763194070e-01,-8.7144414200e-17,0.0000000000e+00,0.0000000000e+00,-2.4645183740e+01
157,3.0962988750e-01,-8.7710382420e-17,0.0000000000e+00,0.0000000000e+00,-2.5168751290e+01
158,3.1162783430e-01,-8.8276350630e-17,0.0000000000e+00,0.0000000000e+00,-2.6211723410e+01
159,3.1362578100e-01,-8.8842318850e-17,0.0000000000e+00,0.0000000000e+00,-2.7670472180e+01
160,3.1562372780e-01,-8.9408287060e-17,0.0000000000e+00,0.0000000000e+00,-2.8928252250e+01
161,3.1762167450e-01,-8.9974255280e-17,0.0000000000e+00,0.0000000000e+00,-2.9707908420e+01
162,3.1961962130e-01,-9.0540223490e-17,0.0000000000e+00,0.0000000000e+00,-2.9978874000e+01
163,3.2161756810e-01,-9.1106191710e-17,0.0000000000e+00,0.0000000000e+00,-2.9724229620e+01
164,3.2361551480e-01,-9.1672159920e-17,0.0000000000e+00,0.0000000000e+00,-2.9412742700e+01
165,3.2561346160e-01,-9.2238128140e-17,0.0000000000e+00,0.0000000000e+00,-2.9342403450e+01
166,3.2761140840e-01,-9.2804096350e-17,0.0000000000e+00,0.0000000000e+00,-2.9660884940e+01
167,3.2960935510e-01,-9.3370064570e-17,0.0000000000e+00,0.0000000000e+00,-3.0454448410e+01
168,3.3160730190e-01,-9.3936032780e-17,0.0000000000e+00,0.0000000000e+00,-3.1684692090e+01
169,3.3360524870e-01,-9.4502001000e-17,0.0000000000e+00,0.0000000000e+00,-3.2820047670e+01
170,3.3560319540e-01,-9.5067969210e-17,0.0000000000e+00,0.0000000000e+00,-3.3476667520e+01
171,3.3760114220e-01,-9.5633937430e-17,0.0000000000e+00,0.0000000000e+00,-3.3637558620e+01
172,3.3959908900e-01,-9.6199905640e-17,0.0000000000e+00,0.0000000000e+00,-3.3455011870e+01
173,3.4159703570e-01,-9.6765873860e-17,0.0000000000e+00,0.0000000000e+00,-3.3280294740e+01
174,3.4359498250e-01,-9.7331842080e-17,0.0000000000e+00,0.0000000000e+00,-3.3178299600e+01
175,3.4559292930e-01,-9.7897810290e-17,0.0000000000e+00,0.0000000000e+00,-3.3254579720e+01
176,3.4759087600e-01,-9.8463778510e-17,0.0000000000e+00,0.0000000000e+00,-3.3539617470e+01
177,3.4958882280e-01,-9.9029746720e-17,0.0000000000e+00,0.0000000000e+00,-3.3992144970e+01
178,3.5158676950e-01,-9.9595714940e-17,0.0000000000e+00,0.0000000000e+00,-3.4766803210e+01
179,3.5358471630e-01,-1.0016168320e-16,0.0000000000e+00,0.0000000000e+00,-3.5485335120e+01
180,3.5558266310e-01,-1.0072765140e-16,0.0000000000e+00,0.0000000000e+00,-3.5884880460e+01
181,3.5758060980e-01,-1.0129361960e-16,0.0000000000e+00,0.0000000000e+00,-3.6017278800e+01
182,3.5957855660e-01,-1.0185958780e-16,0.0000000000e+00,0.0000000000e+00,-3.5890646900e+01
183,3.6157650340e-01,-1.0242555600e-16,0.0000000000e+00,0.0000000000e+00,-3.5805738290e+01
184,3.6357445010e-01,-1.0299152420e-16,0.0000000000e+00,0.0000000000e+00,-3.5978034370e+01
185,3.6557239690e-01,-1.0355749240e-16,0.0000000000e+00,0.0000000000e+00,-3.6460514480e+01
186,3.6757034370e-01,-1.0412346070e-16,0.0000000000e+00,0.0000000000e+00,-3.7154930620e+01
187,3.6956829040e-01,-1.0468942890e-16,0.0000000000e+00,0.0000000000e+00,-3.7788793920e+01
188,3.7156623720e-01,-1.0525539710e-16,0.0000000000e+00,0.0000000000e+00,-3.8093656200e+01
189,3.7356418400e-01,-1.0582136530e-16,0.0000000000e+00,0.0000000000e+00,-3.8048814240e+01
190,3.7556213070e-01,-1.0638733350e-16,0.0000000000e+00,0.0000000000e+00,-3.7756533810e+01
191,3.7756007750e-01,-1.0695330170e-16,0.0000000000e+00,0.0000000000e+00,-3.7339986360e+01
192,3.7955802420e-01,-1.0751926990e-16,0.0000000000e+00,0.0000000000e+00,-3.6834614340e+01
193,3.8155597100e-01,-1.0808523820e-16,0.0000000000e+00,0.0000000000e+00,-3.6330238250e+01
194,3.8355391780e-01,-1.0865120640e-16,0.0000000000e+00,0.0000000000e+00,-3.6102945000e+01
195,3.8555186450e-01,-1.0921717460e-16,0.0000000000e+00,0.0000000000e+00,-3.6459013710e+01
196,3.8754981130e-01,-1.0978314280e-16,0.0000000000e+00,0.0000000000e+00,-3.7455269470e+01
197,3.8954775810e-01,-1.1034911100e-16,0.0000000000e+00,0.0000000000e+00,-3.8302393990e+01
198,3.9154570480e-01,-1.1091507920e-16,0.0000000000e+00,0.0000000000e+00,-3.8401234380e+01
199,3.9354365160e-01,-1.1148104750e-16,0.0000000000e+00,0.0000000000e+00,-3.7978549870e+01
200,3.9554159840e-01,-1.1204701570e-16,0.0000000000e+00,0.0000000000e+00,-3.7337863830e+01
201,3.9753954510e-01,-1.1261298390e-16,0.0000000000e+00,0.0000000000e+00,-3.6754034020e+01
202,3.9953749190e-01,-1.1317895210e-16,0.0000000000e+00,0.0000000000e+00,-3.6441389010e+01
203,4.0153543870e-01,-1.1374492030e-16,0.0000000000e+00,0.0000000000e+00,-3.6632814650e+01
204,4.0353338540e-01,-1.1431088850e-16,0.0000000000e+00,0.0000000000e+00,-3.7300576640e+01
205,4.0553133220e-01,-1.1487685670e-16,0.0000000000e+00,0.0000000000e+00,-3.7879994570e+01
206,4.0752927890e-01,-1.1544282500e-16,0.0000000000e+00,0.0000000000e+00,-3.8094530890e+01
207,4.0952722570e-01,-1.1600879320e-16,0.0000000000e+00,0.0000000000e+00,-3.7854555840e+01
208,4.1152517250e-01,-1.1657476140e-16,0.0000000000e+00,0.0000000000e+00,-3.7228921320e+01
209,4.1352311920e-01,-1.1714072960e-16,0.0000000000e+00,0.0000000000e+00,-3.6714580070e+01
210,4.1552106600e-01,-1.1770669780e-16,0.0000000000e+00,0.0000000000e+00,-3.6510819610e+01
211,4.1751901280e-01,-1.1827266600e-16,0.0000000000e+00,0.0000000000e+00,-3.6390411650e+01
212,4.1951695950e-01,-1.1883863420e-16,0.0000000000e+00,0.0000000000e+00,-3.5956247430e+01
213,4.2151490630e-01,-1.1940460250e-16,0.0000000000e+00,0.0000000000e+00,-3.5531417480e+01
214,4.2351285310e-01,-1.1997057070e-16,0.0000000000e+00,0.0000000000e+00,-3.5593778530e+01
215,4.2551079980e-01,-1.2053653890e-16,0.0000000000e+00,0.0000000000e+00,-3.6275426120e+01
216,4.2750874660e-01,-1.2110250710e-16,0.0000000000e+00,0.0000000000e+00,-3.7067197930e+01
217,4.2950669340e-01,-1.2166847530e-16,0.0000000000e+00,0.0000000000e+00,-3.7025682070e+01
218,4.3150464010e-01,-1.2223444350e-16,0.0000000000e+00,0.0000000000e+00,-3.6286373350e+01
219,4.3350258690e-01,-1.2280041180e-16,0.0000000000e+00,0.0000000000e+00,-3.5375861450e+01
220,4.3550053370e-01,-1.2336638000e-16,0.0000000000e+00,0.0000000000e+00,-3.4437540730e+01
221,4.3749848040e-01,-1.2393234820e-16,0.0000000000e+00,0.0000000000e+00,-3.3699517220e+01
