nodenumber,x-coordinate,y-coordinate,pressure,x-velocity,y-velocity
1,0.0000000000e+00,0.0000000000e+00,0.0000000000e+00,0.0000000000e+00,6.9590390640e+01
2,1.0130973630e-03,-2.8698507720e-19,0.0000000000e+00,0.0000000000e+00,6.3058554030e+01
3,2.2220913800e-03,-6.2946276370e-19,0.0000000000e+00,0.0000000000e+00,5.3657145960e+01
4,3.9473965850e-03,-1.1181984620e-18,0.0000000000e+00,0.0000000000e+00,4.9855846900e+01
5,5.9419792880e-03,-1.6832137230e-18,0.0000000000e+00,0.0000000000e+00,5.0354232970e+01
6,7.9399260530e-03,-2.2491819380e-18,0.0000000000e+00,0.0000000000e+00,4.9198032470e+01
7,9.9378728170e-03,-2.8151501530e-18,0.0000000000e+00,0.0000000000e+00,4.7396044000e+01
8,1.1935819580e-02,-3.3811183680e-18,0.0000000000e+00,0.0000000000e+00,4.6008532370e+01
9,1.3933766350e-02,-3.9470865830e-18,0.0000000000e+00,0.0000000000e+00,4.4861952940e+01
10,1.5931713110e-02,-4.5130547990e-18,0.0000000000e+00,0.0000000000e+00,4.3970971840e+01
11,1.7929659880e-02,-5.0790230140e-18,0.0000000000e+00,0.0000000000e+00,4.3342292500e+01
12,1.9927606640e-02,-5.6449912290e-18,0.0000000000e+00,0.0000000000e+00,4.2918357630e+01
13,2.1925553400e-02,-6.2109594440e-18,0.0000000000e+00,0.0000000000e+00,4.2611710290e+01
14,2.3923500170e-02,-6.7769276590e-18,0.0000000000e+00,0.0000000000e+00,4.2488952390e+01
15,2.5921446930e-02,-7.3428958740e-18,0.0000000000e+00,0.0000000000e+00,4.2911700120e+01
16,2.7919393700e-02,-7.9088640890e-18,0.0000000000e+00,0.0000000000e+00,4.3575229330e+01
17,2.9917340460e-02,-8.4748323040e-18,0.0000000000e+00,0.0000000000e+00,4.3816192470e+01
18,3.1915287230e-02,-9.0408005190e-18,0.0000000000e+00,0.0000000000e+00,4.2448344620e+01
19,3.3913233990e-02,-9.6067687340e-18,0.0000000000e+00,0.0000000000e+00,4.0311195010e+01
20,3.5911180760e-02,-1.0172736950e-17,0.0000000000e+00,0.0000000000e+00,3.8703114120e+01
21,3.7909127520e-02,-1.0738705160e-17,0.0000000000e+00,0.0000000000e+00,3.7664214100e+01
22,3.9907074280e-02,-1.1304673380e-17,0.0000000000e+00,0.0000000000e+00,3.7542952730e+01
23,4.1905021050e-02,-1.1870641590e-17,0.0000000000e+00,0.0000000000e+00,3.7747458140e+01
24,4.3902967810e-02,-1.2436609810e-17,0.0000000000e+00,0.0000000000e+00,3.7871104880e+01
25,4.5900914580e-02,-1.3002578030e-17,0.0000000000e+00,0.0000000000e+00,3.7803985040e+01
26,4.7898861340e-02,-1.3568546240e-17,0.0000000000e+00,0.0000000000e+00,3.7518475540e+01
27,4.9896808110e-02,-1.4134514460e-17,0.0000000000e+00,0.0000000000e+00,3.6896042250e+01
28,5.1894754870e-02,-1.4700482670e-17,0.0000000000e+00,0.0000000000e+00,3.6289843320e+01
29,5.3892701640e-02,-1.5266450890e-17,0.0000000000e+00,0.0000000000e+00,3.6082922000e+01
30,5.5890648400e-02,-1.5832419100e-17,0.0000000000e+00,0.0000000000e+00,3.6016101470e+01
31,5.7888595160e-02,-1.6398387320e-17,0.0000000000e+00,0.0000000000e+00,3.5977482920e+01
32,5.9886541930e-02,-1.6964355530e-17,0.0000000000e+00,0.0000000000e+00,3.6037019890e+01
33,6.1884488690e-02,-1.7530323750e-17,0.0000000000e+00,0.0000000000e+00,3.5968448290e+01
34,6.3882435460e-02,-1.8096291960e-17,0.0000000000e+00,0.0000000000e+00,3.5540808310e+01
35,6.5880382220e-02,-1.8662260180e-17,0.0000000000e+00,0.0000000000e+00,3.4890938270e+01
36,6.7878328990e-02,-1.9228228390e-17,0.0000000000e+00,0.0000000000e+00,3.4294729830e+01
37,6.9876275750e-02,-1.9794196610e-17,0.0000000000e+00,0.0000000000e+00,3.3859252280e+01
38,7.1874222520e-02,-2.0360164820e-17,0.0000000000e+00,0.0000000000e+00,3.3557866620e+01
39,7.3872169280e-02,-2.0926133040e-17,0.0000000000e+00,0.0000000000e+00,3.3394147090e+01
40,7.5870116050e-02,-2.1492101250e-17,0.0000000000e+00,0.0000000000e+00,3.3396071140e+01
41,7.7868062810e-02,-2.2058069470e-17,0.0000000000e+00,0.0000000000e+00,3.3444564620e+01
42,7.9866009570e-02,-2.2624037680e-17,0.0000000000e+00,0.0000000000e+00,3.3375520690e+01
43,8.1863956340e-02,-2.3190005900e-17,0.0000000000e+00,0.0000000000e+00,3.3107864050e+01
44,8.3861903100e-02,-2.3755974110e-17,0.0000000000e+00,0.0000000000e+00,3.2649927290e+01
45,8.5859849870e-02,-2.4321942330e-17,0.0000000000e+00,0.0000000000e+00,3.2111010840e+01
46,8.7857796630e-02,-2.4887910540e-17,0.0000000000e+00,0.0000000000e+00,3.1663861380e+01
47,8.9855743400e-02,-2.5453878760e-17,0.0000000000e+00,0.0000000000e+00,3.1294876840e+01
48,9.1853690160e-02,-2.6019846970e-17,0.0000000000e+00,0.0000000000e+00,3.1025524560e+01
49,9.3851636930e-02,-2.6585815190e-17,0.0000000000e+00,0.0000000000e+00,3.0954047750e+01
50,9.5849583690e-02,-2.7151783400e-17,0.0000000000e+00,0.0000000000e+00,3.0925214250e+01
51,9.7847530450e-02,-2.7717751620e-17,0.0000000000e+00,0.0000000000e+00,3.0820046160e+01
52,9.9845477220e-02,-2.8283719830e-17,0.0000000000e+00,0.0000000000e+00,3.0614307940e+01
53,1.0184342400e-01,-2.8849688050e-17,0.0000000000e+00,0.0000000000e+00,3.0215275720e+01
54,1.0384137070e-01,-2.9415656260e-17,0.0000000000e+00,0.0000000000e+00,2.9650715270e+01
55,1.0583931750e-01,-2.9981624480e-17,0.0000000000e+00,0.0000000000e+00,2.9152187240e+01
56,1.0783726430e-01,-3.0547592690e-17,0.0000000000e+00,0.0000000000e+00,2.8801180960e+01
57,1.0983521100e-01,-3.1113560910e-17,0.0000000000e+00,0.0000000000e+00,2.8669712920e+01
58,1.1183315780e-01,-3.1679529120e-17,0.0000000000e+00,0.0000000000e+00,2.8823146730e+01
59,1.1383110460e-01,-3.2245497340e-17,0.0000000000e+00,0.0000000000e+00,2.9005545010e+01
60,1.1582905130e-01,-3.2811465550e-17,0.0000000000e+00,0.0000000000e+00,2.8922748500e+01
61,1.1782699810e-01,-3.3377433770e-17,0.0000000000e+00,0.0000000000e+00,2.8481683440e+01
62,1.1982494490e-01,-3.3943401980e-17,0.0000000000e+00,0.0000000000e+00,2.7787872790e+01
63,1.2182289160e-01,-3.4509370200e-17,0.0000000000e+00,0.0000000000e+00,2.6986051300e+01
64,1.2382083840e-01,-3.5075338410e-17,0.0000000000e+00,0.0000000000e+00,2.6332921680e+01
65,1.2581878520e-01,-3.5641306630e-17,0.0000000000e+00,0.0000000000e+00,2.6006396840e+01
66,1.2781673190e-01,-3.6207274840e-17,0.0000000000e+00,0.0000000000e+00,2.5881423870e+01
67,1.2981467870e-01,-3.6773243060e-17,0.0000000000e+00,0.0000000000e+00,2.5780862070e+01
68,1.3181262550e-01,-3.7339211270e-17,0.0000000000e+00,0.0000000000e+00,2.5585520670e+01
69,1.3381057220e-01,-3.7905179490e-17,0.0000000000e+00,0.0000000000e+00,2.5341055440e+01
70,1.3580851900e-01,-3.8471147700e-17,0.0000000000e+00,0.0000000000e+00,2.5035388770e+01
71,1.3780646570e-01,-3.9037115920e-17,0.0000000000e+00,0.0000000000e+00,2.4522706110e+01
72,1.3980441250e-01,-3.9603084130e-17,0.0000000000e+00,0.0000000000e+00,2.3694418850e+01
73,1.4180235930e-01,-4.0169052350e-17,0.0000000000e+00,0.0000000000e+00,2.2863281070e+01
74,1.4380030600e-01,-4.0735020570e-17,0.0000000000e+00,0.0000000000e+00,2.2375027600e+01
75,1.4579825280e-01,-4.1300988780e-17,0.0000000000e+00,0.0000000000e+00,2.2290559710e+01
76,1.4779619960e-01,-4.1866957000e-17,0.0000000000e+00,0.0000000000e+00,2.2486339080e+01
77,1.4979414630e-01,-4.2432925210e-17,0.0000000000e+00,0.0000000000e+00,2.2513904910e+01
78,1.5179209310e-01,-4.2998893430e-17,0.0000000000e+00,0.0000000000e+00,2.2138009640e+01
79,1.5379003990e-01,-4.3564861640e-17,0.0000000000e+00,0.0000000000e+00,2.1456522630e+01
80,1.5578798660e-01,-4.4130829860e-17,0.0000000000e+00,0.0000000000e+00,2.0582400520e+01
81,1.5778593340e-01,-4.4696798070e-17,0.0000000000e+00,0.0000000000e+00,1.9610605740e+01
82,1.5978388020e-01,-4.5262766290e-17,0.0000000000e+00,0.0000000000e+00,1.8648914280e+01
83,1.6178182690e-01,-4.5828734500e-17,0.0000000000e+00,0.0000000000e+00,1.7744852400e+01
84,1.6377977370e-01,-4.6394702720e-17,0.0000000000e+00,0.0000000000e+00,1.7268392240e+01
85,1.6577772040e-01,-4.6960670930e-17,0.0000000000e+00,0.0000000000e+00,1.7293016390e+01
86,1.6777566720e-01,-4.7526639150e-17,0.0000000000e+00,0.0000000000e+00,1.7339257540e+01
87,1.6977361400e-01,-4.8092607360e-17,0.0000000000e+00,0.0000000000e+00,1.7240937210e+01
88,1.7177156070e-01,-4.8658575580e-17,0.0000000000e+00,0.0000000000e+00,1.6985009160e+01
89,1.7376950750e-01,-4.9224543790e-17,0.0000000000e+00,0.0000000000e+00,1.6440337020e+01
90,1.7576745430e-01,-4.9790512010e-17,0.0000000000e+00,0.0000000000e+00,1.5614254820e+01
91,1.7776540100e-01,-5.0356480220e-17,0.0000000000e+00,0.0000000000e+00,1.4570588050e+01
92,1.7976334780e-01,-5.0922448440e-17,0.0000000000e+00,0.0000000000e+00,1.3571746170e+01
93,1.8176129460e-01,-5.1488416650e-17,0.0000000000e+00,0.0000000000e+00,1.2944426770e+01
94,1.8375924130e-01,-5.2054384870e-17,0.0000000000e+00,0.0000000000e+00,1.2604807850e+01
95,1.8575718810e-01,-5.2620353080e-17,0.0000000000e+00,0.0000000000e+00,1.2323867670e+01
96,1.8775513490e-01,-5.3186321300e-17,0.0000000000e+00,0.0000000000e+00,1.1870800790e+01
97,1.8975308160e-01,-5.3752289510e-17,0.0000000000e+00,0.0000000000e+00,1.1231236940e+01
98,1.9175102840e-01,-5.4318257730e-17,0.0000000000e+00,0.0000000000e+00,1.0655918210e+01
99,1.9374897510e-01,-5.4884225940e-17,0.0000000000e+00,0.0000000000e+00,1.0293266650e+01
100,1.9574692190e-01,-5.5450194160e-17,0.0000000000e+00,0.0000000000e+00,9.8226186170e+00
101,1.9774486870e-01,-5.6016162370e-17,0.0000000000e+00,0.0000000000e+00,8.8271182020e+00
102,1.9974281540e-01,-5.6582130590e-17,0.0000000000e+00,0.0000000000e+00,7.7425101350e+00
103,2.0174076220e-01,-5.7148098800e-17,0.0000000000e+00,0.0000000000e+00,6.9757158360e+00
104,2.0373870900e-01,-5.7714067020e-17,0.0000000000e+00,0.0000000000e+00,6.5382743310e+00
105,2.0573665570e-01,-5.8280035230e-17,0.0000000000e+00,0.0000000000e+00,6.3176172830e+00
106,2.0773460250e-01,-5.8846003450e-17,0.0000000000e+00,0.0000000000e+00,6.0657483310e+00
107,2.0973254930e-01,-5.9411971660e-17,0.0000000000e+00,0.0000000000e+00,5.6798806360e+00
108,2.1173049600e-01,-5.9977939880e-17,0.0000000000e+00,0.0000000000e+00,4.9952220650e+00
109,2.1372844280e-01,-6.0543908090e-17,0.0000000000e+00,0.0000000000e+00,3.9562435720e+00
110,2.1572638960e-01,-6.1109876310e-17,0.0000000000e+00,0.0000000000e+00,2.5316972250e+00
111,2.1772433630e-01,-6.1675844520e-17,0.0000000000e+00,0.0000000000e+00,1.1018622520e+00
112,2.1972228310e-01,-6.2241812740e-17,0.0000000000e+00,0.0000000000e+00,4.1669335510e-02
113,2.2172022990e-01,-6.2807780950e-17,0.0000000000e+00,0.0000000000e+00,-4.9968660170e-01
114,2.2371817660e-01,-6.3373749170e-17,0.0000000000e+00,0.0000000000e+00,-4.5595172940e-01
115,2.2571612340e-01,-6.3939717380e-17,0.0000000000e+00,0.0000000000e+00,-2.4262559370e-01
116,2.2771407010e-01,-6.4505685600e-17,0.0000000000e+00,0.0000000000e+00,-3.0956135320e-01
117,2.2971201690e-01,-6.5071653810e-17,0.0000000000e+00,0.0000000000e+00,-8.8854110280e-01
118,2.3170996370e-01,-6.5637622030e-17,0.0000000000e+00,0.0000000000e+00,-2.0253333970e+00
119,2.3370791040e-01,-6.6203590240e-17,0.0000000000e+00,0.0000000000e+00,-3.4773369060e+00
120,2.3570585720e-01,-6.6769558460e-17,0.0000000000e+00,0.0000000000e+00,-4.7400246030e+00
121,2.3770380400e-01,-6.7335526670e-17,0.0000000000e+00,0.0000000000e+00,-5.6628678680e+00
122,2.3970175070e-01,-6.7901494890e-17,0.0000000000e+00,0.0000000000e+00,-6.1021349490e+00
123,2.4169969750e-01,-6.8467463100e-17,0.0000000000e+00,0.0000000000e+00,-6.1698048530e+00
124,2.4369764430e-01,-6.9033431320e-17,0.0000000000e+00,0.0000000000e+00,-6.4087959800e+00
125,2.4569559100e-01,-6.9599399540e-17,0.0000000000e+00,0.0000000000e+00,-6.8732733320e+00
126,2.4769353780e-01,-7.0165367750e-17,0.0000000000e+00,0.0000000000e+00,-7.5013556190e+00
127,2.4969148460e-01,-7.0731335970e-17,0.0000000000e+00,0.0000000000e+00,-8.2729663440e+00
128,2.5168943130e-01,-7.1297304180e-17,0.0000000000e+00,0.0000000000e+00,-9.1497068260e+00
129,2.5368737810e-01,-7.1863272400e-17,0.0000000000e+00,0.0000000000e+00,-1.0280562000e+01
130,2.5568532480e-01,-7.2429240610e-17,0.0000000000e+00,0.0000000000e+00,-1.1433792290e+01
131,2.5768327160e-01,-7.2995208830e-17,0.0000000000e+00,0.0000000000e+00,-1.2360779060e+01
132,2.5968121840e-01,-7.3561177040e-17,0.0000000000e+00,0.0000000000e+00,-1.2904673540e+01
133,2.6167916510e-01,-7.4127145260e-17,0.0000000000e+00,0.0000000000e+00,-1.2944589250e+01
134,2.6367711190e-01,-7.4693113470e-17,0.0000000000e+00,0.0000000000e+00,-1.2852638280e+01
135,2.6567505870e-01,-7.5259081690e-17,0.0000000000e+00,0.0000000000e+00,-1.2910309380e+01
136,2.6767300540e-01,-7.5825049900e-17,0.0000000000e+00,0.0000000000e+00,-1.3195945150e+01
137,2.6967095220e-01,-7.6391018120e-17,0.0000000000e+00,0.0000000000e+00,-1.3779498520e+01
138,2.7166889900e-01,-7.6956986330e-17,0.0000000000e+00,0.0000000000e+00,-1.4893933310e+01
139,2.7366684570e-01,-7.7522954550e-17,0.0000000000e+00,0.0000000000e+00,-1.6464361870e+01
140,2.7566479250e-01,-7.8088922760e-17,0.0000000000e+00,0.0000000000e+00,-1.7843069970e+01
141,2.7766273930e-01,-7.8654890980e-17,0.0000000000e+00,0.0000000000e+00,-1.8672047850e+01
142,2.7966068600e-01,-7.9220859190e-17,0.0000000000e+00,0.0000000000e+00,-1.8971301110e+01
143,2.8165863280e-01,-7.9786827410e-17,0.0000000000e+00,0.0000000000e+00,-1.9021827200e+01
144,2.8365657960e-01,-8.0352795620e-17,0.0000000000e+00,0.0000000000e+00,-1.9270482400e+01
145,2.8565452630e-01,-8.0918763840e-17,0.0000000000e+00,0.0000000000e+00,-1.9900729670e+01
146,2.8765247310e-01,-8.1484732050e-17,0.0000000000e+00,0.0000000000e+00,-2.0727714660e+01
147,2.8965041980e-01,-8.2050700270e-17,0.0000000000e+00,0.0000000000e+00,-2.1225977010e+01
148,2.9164836660e-01,-8.2616668480e-17,0.0000000000e+00,0.0000000000e+00,-2.1496862200e+01
149,2.9364631340e-01,-8.3182636700e-17,0.0000000000e+00,0.0000000000e+00,-2.2130462400e+01
150,2.9564426010e-01,-8.3748604910e-17,0.0000000000e+00,0.0000000000e+00,-2.3689319560e+01
151,2.9764220690e-01,-8.4314573130e-17,0.0000000000e+00,0.0000000000e+00,-2.5465569970e+01
152,2.9964015370e-01,-8.4880541340e-17,0.0000000000e+00,0.0000000000e+00,-2.5836762220e+01
153,3.0163810040e-01,-8.5446509560e-17,0.0000000000e+00,0.0000000000e+00,-2.5251097600e+01
154,3.0363604720e-01,-8.6012477770e-17,0.0000000000e+00,0.0000000000e+00,-2.5020352460e+01
155,3.0563399400e-01,-8.6578445990e-17,0.0000000000e+00,0.0000000000e+00,-2.5132706830e+01
156,3.0763194070e-01,-8.7144414200e-17,0.0000000000e+00,0.0000000000e+00,-2.5310785900e+01
157,3.0962988750e-01,-8.7710382420e-17,0.0000000000e+00,0.0000000000e+00,-2.5782748800e+01
158,3.1162783430e-01,-8.8276350630e-17,0.0000000000e+00,0.0000000000e+00,-2.6765060630e+01
159,3.1362578100e-01,-8.8842318850e-17,0.0000000000e+00,0.0000000000e+00,-2.8163212000e+01
160,3.1562372780e-01,-8.9408287060e-17,0.0000000000e+00,0.0000000000e+00,-2.9358147480e+01
161,3.1762167450e-01,-8.9974255280e-17,0.0000000000e+00,0.0000000000e+00,-3.0080204220e+01
162,3.1961962130e-01,-9.0540223490e-17,0.0000000000e+00,0.0000000000e+00,-3.0293110350e+01
163,3.2161756810e-01,-9.1106191710e-17,0.0000000000e+00,0.0000000000e+00,-2.9976183220e+01
164,3.2361551480e-01,-9.1672159920e-17,0.0000000000e+00,0.0000000000e+00,-2.9612105600e+01
165,3.2561346160e-01,-9.2238128140e-17,0.0000000000e+00,0.0000000000e+00,-2.9484398840e+01
166,3.2761140840e-01,-9.2804096350e-17,0.0000000000e+00,0.0000000000e+00,-2.9733877800e+01
167,3.2960935510e-01,-9.3370064570e-17,0.0000000000e+00,0.0000000000e+00,-3.0465762410e+01
168,3.3160730190e-01,-9.3936032780e-17,0.0000000000e+00,0.0000000000e+00,-3.1635296730e+01
169,3.3360524870e-01,-9.4502001000e-17,0.0000000000e+00,0.0000000000e+00,-3.2706632730e+01
170,3.3560319540e-01,-9.5067969210e-17,0.0000000000e+00,0.0000000000e+00,-3.3302532240e+01
171,3.3760114220e-01,-9.5633937430e-17,0.0000000000e+00,0.0000000000e+00,-3.3397011670e+01
172,3.3959908900e-01,-9.6199905640e-17,0.0000000000e+00,0.0000000000e+00,-3.3145456390e+01
173,3.4159703570e-01,-9.6765873860e-17,0.0000000000e+00,0.0000000000e+00,-3.2911181130e+01
174,3.4359498250e-01,-9.7331842080e-17,0.0000000000e+00,0.0000000000e+00,-3.2751165890e+01
175,3.4559292930e-01,-9.7897810290e-17,0.0000000000e+00,0.0000000000e+00,-3.2763508200e+01
176,3.4759087600e-01,-9.8463778510e-17,0.0000000000e+00,0.0000000000e+00,-3.2984415580e+01
177,3.4958882280e-01,-9.9029746720e-17,0.0000000000e+00,0.0000000000e+00,-3.3376899710e+01
178,3.5158676950e-01,-9.9595714940e-17,0.0000000000e+00,0.0000000000e+00,-3.4088118510e+01
179,3.5358471630e-01,-1.0016168320e-16,0.0000000000e+00,0.0000000000e+00,-3.4741288940e+01
180,3.5558266310e-01,-1.0072765140e-16,0.0000000000e+00,0.0000000000e+00,-3.5075846970e+01
181,3.5758060980e-01,-1.0129361960e-16,0.0000000000e+00,0.0000000000e+00,-3.5142974340e+01
182,3.5957855660e-01,-1.0185958780e-16,0.0000000000e+00,0.0000000000e+00,-3.4954305820e+01
183,3.6157650340e-01,-1.0242555600e-16,0.0000000000e+00,0.0000000000e+00,-3.4807724130e+01
184,3.6357445010e-01,-1.0299152420e-16,0.0000000000e+00,0.0000000000e+00,-3.4917051380e+01
185,3.6557239690e-01,-1.0355749240e-16,0.0000000000e+00,0.0000000000e+00,-3.5339124990e+01
186,3.6757034370e-01,-1.0412346070e-16,0.0000000000e+00,0.0000000000e+00,-3.5972714500e+01
187,3.6956829040e-01,-1.0468942890e-16,0.0000000000e+00,0.0000000000e+00,-3.6541982640e+01
188,3.7156623720e-01,-1.0525539710e-16,0.0000000000e+00,0.0000000000e+00,-3.6787016900e+01
189,3.7356418400e-01,-1.0582136530e-16,0.0000000000e+00,0.0000000000e+00,-3.6685795890e+01
190,3.7556213070e-01,-1.0638733350e-16,0.0000000000e+00,0.0000000000e+00,-3.6333084290e+01
191,3.7756007750e-01,-1.0695330170e-16,0.0000000000e+00,0.0000000000e+00,-3.5858467770e+01
192,3.7955802420e-01,-1.0751926990e-16,0.0000000000e+00,0.0000000000e+00,-3.5303025760e+01
193,3.8155597100e-01,-1.0808523820e-16,0.0000000000e+00,0.0000000000e+00,-3.4750021440e+01
194,3.8355391780e-01,-1.0865120640e-16,0.0000000000e+00,0.0000000000e+00,-3.4470428570e+01
195,3.8555186450e-01,-1.0921717460e-16,0.0000000000e+00,0.0000000000e+00,-3.4764315920e+01
196,3.8754981130e-01,-1.0978314280e-16,0.0000000000e+00,0.0000000000e+00,-3.5694459730e+01
197,3.8954775810e-01,-1.1034911100e-16,0.0000000000e+00,0.0000000000e+00,-3.6486961200e+01
198,3.9154570480e-01,-1.1091507920e-16,0.0000000000e+00,0.0000000000e+00,-3.6534961740e+01
199,3.9354365160e-01,-1.1148104750e-16,0.0000000000e+00,0.0000000000e+00,-3.6062242270e+01
200,3.9554159840e-01,-1.1204701570e-16,0.0000000000e+00,0.0000000000e+00,-3.5375526430e+01
201,3.9753954510e-01,-1.1261298390e-16,0.0000000000e+00,0.0000000000e+00,-3.4746942660e+01
202,3.9953749190e-01,-1.1317895210e-16,0.0000000000e+00,0.0000000000e+00,-3.4392537560e+01
203,4.0153543870e-01,-1.1374492030e-16,0.0000000000e+00,0.0000000000e+00,-3.4534575790e+01
204,4.0353338540e-01,-1.1431088850e-16,0.0000000000e+00,0.0000000000e+00,-3.5145821520e+01
205,4.0553133220e-01,-1.1487685670e-16,0.0000000000e+00,0.0000000000e+00,-3.5675707200e+01
206,4.0752927890e-01,-1.1544282500e-16,0.0000000000e+00,0.0000000000e+00,-3.5843869920e+01
207,4.0952722570e-01,-1.1600879320e-16,0.0000000000e+00,0.0000000000e+00,-3.5558032080e+01
208,4.1152517250e-01,-1.1657476140e-16,0.0000000000e+00,0.0000000000e+00,-3.4891172030e+01
209,4.1352311920e-01,-1.1714072960e-16,0.0000000000e+00,0.0000000000e+00,-3.4339985040e+01
210,4.1552106600e-01,-1.1770669780e-16,0.0000000000e+00,0.0000000000e+00,-3.4098967070e+01
211,4.1751901280e-01,-1.1827266600e-16,0.0000000000e+00,0.0000000000e+00,-3.3938606060e+01
212,4.1951695950e-01,-1.1883863420e-16,0.0000000000e+00,0.0000000000e+00,-3.3473160470e+01
213,4.2151490630e-01,-1.1940460250e-16,0.0000000000e+00,0.0000000000e+00,-3.3018572200e+01
214,4.2351285310e-01,-1.1997057070e-16,0.0000000000e+00,0.0000000000e+00,-3.3041077030e+01
215,4.2551079980e-01,-1.2053653890e-16,0.0000000000e+00,0.0000000000e+00,-3.3679842350e+01
216,4.2750874660e-01,-1.2110250710e-16,0.0000000000e+00,0.0000000000e+00,-3.4432885540e+01
217,4.2950669340e-01,-1.2166847530e-16,0.0000000000e+00,0.0000000000e+00,-3.4359627590e+01
218,4.3150464010e-01,-1.2223444350e-16,0.0000000000e+00,0.0000000000e+00,-3.3594416710e+01
219,4.3350258690e-01,-1.2280041180e-16,0.0000000000e+00,0.0000000000e+00,-3.2662094060e+01
220,4.3550053370e-01,-1.2336638000e-16,0.0000000000e+00,0.0000000000e+00,-3.1703896240e+01
221,4.3749848040e-01,-1.2393234820e-16,0.0000000000e+00,0.0000000000e+00,-3.0947223810e+01
